timestamp,emg_value
0.0,252
0.001,267
0.002,283
0.003,285
0.004,283
0.005,276
0.006,274
0.007,266
0.008,258
0.009,258
0.01,260
0.011,256
0.012,252
0.013,247
0.014,252
0.015,246
0.016,256
0.017,273
0.018,269
0.019,263
0.02,258
0.021,256
0.022,261
0.023,257
0.024,251
0.025,263
0.026,281
0.027,279
0.028,274
0.029,267
0.03,272
0.031,266
0.032,257
0.033,289
0.034,287
0.035,282
0.036,280
0.037,283
0.038,284
0.039,285
0.04,275
0.041,279
0.042,273
0.043,265
0.044,259
0.045,250
0.046,247
0.047,248
0.048,239
0.049,266
0.05,272
0.051,273
0.052,276
0.053,273
0.054,275
0.055,281
0.056,275
0.057,282
0.058,293
0.059,301
0.06,298
0.061,291
0.062,287
0.063,293
0.064,283
0.065,276
0.066,297
0.067,290
0.068,289
0.069,284
0.07,292
0.071,299
0.072,291
0.073,285
0.074,331
0.075,324
0.076,325
0.077,322
0.078,327
0.079,333
0.08,324
0.081,312
0.082,305
0.083,306
0.084,298
0.085,292
0.086,286
0.087,288
0.088,282
0.089,276
0.09,269
0.091,265
0.092,262
0.093,253
0.094,270
0.095,279
0.096,281
0.097,272
0.098,272
0.099,262
0.1,257
0.101,248
0.102,247
0.103,250
0.104,247
0.105,239
0.106,239
0.107,238
0.108,252
0.109,247
0.11,244
0.111,247
0.112,245
0.113,237
0.114,231
0.115,235
0.116,232
0.117,226
0.118,221
0.119,220
0.12,224
0.121,220
0.122,220
0.123,228
0.124,229
0.125,225
0.126,224
0.127,221
0.128,226
0.129,220
0.13,221
0.131,265
0.132,266
0.133,266
0.134,264
0.135,261
0.136,271
0.137,269
0.138,260
0.139,278
0.14,274
0.141,271
0.142,264
0.143,258
0.144,260
0.145,258
0.146,250
0.147,264
0.148,261
0.149,257
0.15,252
0.151,247
0.152,253
0.153,253
0.154,260
0.155,259
0.156,259
0.157,253
0.158,249
0.159,247
0.16,251
0.161,250
0.162,246
0.163,253
0.164,269
0.165,331
0.166,336
0.167,343
0.168,347
0.169,354
0.17,340
0.171,362
0.172,379
0.173,377
0.174,374
0.175,376
0.176,378
0.177,381
0.178,368
0.179,356
0.18,364
0.181,367
0.182,362
0.183,357
0.184,356
0.185,357
0.186,343
0.187,342
0.188,391
0.189,386
0.19,385
0.191,378
0.192,373
0.193,374
0.194,363
0.195,351
0.196,348
0.197,339
0.198,339
0.199,330
0.2,325
0.201,326
0.202,316
0.203,308
0.204,303
0.205,296
0.206,284
0.207,279
0.208,269
0.209,271
0.21,270
0.211,263
0.212,299
0.213,303
0.214,303
0.215,319
0.216,323
0.217,330
0.218,330
0.219,317
0.22,331
0.221,345
0.222,338
0.223,336
0.224,334
0.225,332
0.226,328
0.227,320
0.228,344
0.229,335
0.23,354
0.231,354
0.232,352
0.233,357
0.234,350
0.235,342
0.236,329
0.237,328
0.238,322
0.239,313
0.24,304
0.241,303
0.242,294
0.243,287
0.244,297
0.245,333
0.246,343
0.247,344
0.248,343
0.249,362
0.25,371
0.251,363
0.252,352
0.253,345
0.254,354
0.255,353
0.256,349
0.257,341
0.258,343
0.259,333
0.26,343
0.261,358
0.262,353
0.263,342
0.264,337
0.265,329
0.266,329
0.267,321
0.268,315
0.269,318
0.27,311
0.271,303
0.272,293
0.273,290
0.274,292
0.275,289
0.276,278
0.277,296
0.278,296
0.279,315
0.28,314
0.281,314
0.282,322
0.283,326
0.284,314
0.285,326
0.286,347
0.287,341
0.288,334
0.289,333
0.29,336
0.291,336
0.292,329
0.293,331
0.294,349
0.295,345
0.296,343
0.297,333
0.298,327
0.299,329
0.3,320
0.301,314
0.302,301
0.303,290
0.304,282
0.305,270
0.306,271
0.307,271
0.308,264
0.309,281
0.31,279
0.311,273
0.312,265
0.313,258
0.314,266
0.315,273
0.316,266
0.317,274
0.318,288
0.319,306
0.32,307
0.321,305
0.322,298
0.323,303
0.324,297
0.325,289
0.326,286
0.327,282
0.328,272
0.329,261
0.33,254
0.331,254
0.332,248
0.333,239
0.334,267
0.335,268
0.336,263
0.337,257
0.338,255
0.339,259
0.34,255
0.341,247
0.342,252
0.343,249
0.344,260
0.345,253
0.346,251
0.347,251
0.348,254
0.349,245
0.35,240
0.351,262
0.352,256
0.353,249
0.354,248
0.355,244
0.356,247
0.357,239
0.358,232
0.359,285
0.36,280
0.361,276
0.362,271
0.363,269
0.364,274
0.365,266
0.366,274
0.367,293
0.368,288
0.369,285
0.37,290
0.371,296
0.372,308
0.373,302
0.374,295
0.375,305
0.376,303
0.377,298
0.378,292
0.379,284
0.38,288
0.381,283
0.382,319
0.383,326
0.384,328
0.385,330
0.386,323
0.387,320
0.388,329
0.389,328
0.39,314
0.391,302
0.392,291
0.393,281
0.394,282
0.395,278
0.396,279
0.397,272
0.398,262
0.399,275
0.4,283
0.401,284
0.402,281
0.403,276
0.404,279
0.405,282
0.406,289
0.407,289
0.408,300
0.409,294
0.41,290
0.411,290
0.412,290
0.413,285
0.414,276
0.415,266
0.416,277
0.417,271
0.418,276
0.419,275
0.42,275
0.421,280
0.422,274
0.423,267
0.424,288
0.425,283
0.426,275
0.427,270
0.428,266
0.429,269
0.43,262
0.431,261
0.432,265
0.433,267
0.434,263
0.435,255
0.436,256
0.437,260
0.438,259
0.439,251
0.44,269
0.441,266
0.442,265
0.443,264
0.444,263
0.445,269
0.446,264
0.447,255
0.448,270
0.449,263
0.45,254
0.451,249
0.452,244
0.453,248
0.454,247
0.455,250
0.456,254
0.457,256
0.458,250
0.459,244
0.46,241
0.461,249
0.462,249
0.463,244
0.464,266
0.465,264
0.466,276
0.467,271
0.468,272
0.469,279
0.47,285
0.471,273
0.472,274
0.473,272
0.474,263
0.475,259
0.476,259
0.477,258
0.478,263
0.479,272
0.48,272
0.481,265
0.482,261
0.483,253
0.484,247
0.485,250
0.486,254
0.487,251
0.488,263
0.489,277
0.49,270
0.491,281
0.492,275
0.493,282
0.494,289
0.495,285
0.496,277
0.497,307
0.498,301
0.499,295
0.5,291
0.501,285
0.502,288
0.503,281
0.504,275
0.505,267
0.506,259
0.507,266
0.508,260
0.509,255
0.51,259
0.511,254
0.512,244
0.513,256
0.514,248
0.515,239
0.516,232
0.517,228
0.518,227
0.519,226
0.52,219
0.521,245
0.522,241
0.523,236
0.524,232
0.525,233
0.526,238
0.527,238
0.528,231
0.529,230
0.53,231
0.531,238
0.532,247
0.533,248
0.534,253
0.535,259
0.536,250
0.537,255
0.538,258
0.539,252
0.54,247
0.541,241
0.542,255
0.543,261
0.544,251
0.545,243
0.546,237
0.547,234
0.548,235
0.549,228
0.55,226
0.551,231
0.552,229
0.553,223
0.554,217
0.555,221
0.556,231
0.557,228
0.558,231
0.559,236
0.56,233
0.561,229
0.562,238
0.563,231
0.564,293
0.565,300
0.566,310
0.567,317
0.568,313
0.569,312
0.57,314
0.571,316
0.572,311
0.573,303
0.574,296
0.575,294
0.576,293
0.577,285
0.578,322
0.579,325
0.58,334
0.581,334
0.582,330
0.583,335
0.584,336
0.585,328
0.586,337
0.587,361
0.588,356
0.589,367
0.59,368
0.591,368
0.592,363
0.593,352
0.594,354
0.595,348
0.596,339
0.597,333
0.598,323
0.599,318
0.6,320
0.601,311
0.602,302
0.603,310
0.604,308
0.605,310
0.606,307
0.607,303
0.608,306
0.609,299
0.61,292
0.611,292
0.612,281
0.613,271
0.614,262
0.615,255
0.616,256
0.617,248
0.618,243
0.619,250
0.62,248
0.621,267
0.622,266
0.623,264
0.624,270
0.625,270
0.626,275
0.627,279
0.628,313
0.629,326
0.63,326
0.631,327
0.632,336
0.633,338
0.634,324
0.635,315
0.636,302
0.637,299
0.638,295
0.639,287
0.64,282
0.641,277
0.642,271
0.643,279
0.644,270
0.645,273
0.646,266
0.647,258
0.648,260
0.649,261
0.65,251
0.651,250
0.652,271
0.653,267
0.654,261
0.655,259
0.656,260
0.657,264
0.658,256
0.659,260
0.66,257
0.661,252
0.662,264
0.663,258
0.664,261
0.665,267
0.666,263
0.667,300
0.668,340
0.669,350
0.67,355
0.671,357
0.672,352
0.673,357
0.674,350
0.675,349
0.676,366
0.677,356
0.678,353
0.679,346
0.68,339
0.681,340
0.682,334
0.683,323
0.684,326
0.685,314
0.686,328
0.687,333
0.688,343
0.689,355
0.69,355
0.691,348
0.692,353
0.693,352
0.694,362
0.695,362
0.696,362
0.697,366
0.698,366
0.699,367
0.7,365
0.701,381
0.702,369
0.703,365
0.704,361
0.705,365
0.706,365
0.707,351
0.708,341
0.709,371
0.71,366
0.711,360
0.712,352
0.713,345
0.714,346
0.715,335
0.716,332
0.717,321
0.718,309
0.719,299
0.72,295
0.721,291
0.722,294
0.723,285
0.724,295
0.725,302
0.726,295
0.727,285
0.728,281
0.729,280
0.73,283
0.731,275
0.732,270
0.733,283
0.734,299
0.735,299
0.736,297
0.737,292
0.738,297
0.739,296
0.74,316
0.741,319
0.742,330
0.743,333
0.744,332
0.745,334
0.746,343
0.747,341
0.748,330
0.749,327
0.75,346
0.751,353
0.752,353
0.753,355
0.754,359
0.755,356
0.756,356
0.757,360
0.758,381
0.759,374
0.76,366
0.761,367
0.762,369
0.763,369
0.764,354
0.765,344
0.766,354
0.767,346
0.768,350
0.769,341
0.77,350
0.771,351
0.772,338
0.773,335
0.774,341
0.775,331
0.776,325
0.777,319
0.778,314
0.779,317
0.78,310
0.781,324
0.782,332
0.783,326
0.784,320
0.785,316
0.786,315
0.787,317
0.788,310
0.789,309
0.79,330
0.791,324
0.792,316
0.793,313
0.794,305
0.795,310
0.796,306
0.797,300
0.798,310
0.799,302
0.8,294
0.801,285
0.802,282
0.803,286
0.804,283
0.805,274
0.806,291
0.807,302
0.808,298
0.809,298
0.81,302
0.811,308
0.812,308
0.813,300
0.814,319
0.815,325
0.816,340
0.817,335
0.818,340
0.819,347
0.82,350
0.821,338
0.822,382
0.823,388
0.824,380
0.825,380
0.826,385
0.827,390
0.828,394
0.829,385
0.83,391
0.831,396
0.832,384
0.833,375
0.834,369
0.835,359
0.836,360
0.837,357
0.838,360
0.839,361
0.84,359
0.841,380
0.842,382
0.843,390
0.844,394
0.845,387
0.846,386
0.847,374
0.848,363
0.849,384
0.85,379
0.851,375
0.852,382
0.853,381
0.854,368
0.855,368
0.856,354
0.857,344
0.858,349
0.859,342
0.86,348
0.861,347
0.862,345
0.863,362
0.864,381
0.865,376
0.866,374
0.867,367
0.868,370
0.869,369
0.87,358
0.871,353
0.872,357
0.873,348
0.874,338
0.875,330
0.876,334
0.877,333
0.878,325
0.879,340
0.88,355
0.881,348
0.882,339
0.883,327
0.884,329
0.885,332
0.886,321
0.887,322
0.888,323
0.889,313
0.89,307
0.891,298
0.892,299
0.893,301
0.894,296
0.895,303
0.896,293
0.897,285
0.898,275
0.899,270
0.9,269
0.901,272
0.902,269
0.903,265
0.904,259
0.905,250
0.906,244
0.907,240
0.908,239
0.909,243
0.91,243
0.911,241
0.912,252
0.913,270
0.914,264
0.915,259
0.916,262
0.917,268
0.918,268
0.919,262
0.92,281
0.921,275
0.922,272
0.923,265
0.924,261
0.925,266
0.926,268
0.927,261
0.928,291
0.929,293
0.93,286
0.931,289
0.932,287
0.933,298
0.934,303
0.935,300
0.936,294
0.937,298
0.938,298
0.939,293
0.94,292
0.941,296
0.942,299
0.943,295
0.944,309
0.945,305
0.946,304
0.947,296
0.948,290
0.949,295
0.95,299
0.951,294
0.952,301
0.953,314
0.954,304
0.955,300
0.956,298
0.957,300
0.958,304
0.959,300
0.96,314
0.961,329
0.962,323
0.963,322
0.964,314
0.965,316
0.966,322
0.967,319
0.968,325
0.969,333
0.97,329
0.971,319
0.972,318
0.973,317
0.974,324
0.975,326
0.976,315
0.977,338
0.978,362
0.979,359
0.98,357
0.981,352
0.982,359
0.983,359
0.984,349
0.985,365
0.986,361
0.987,352
0.988,345
0.989,337
0.99,343
0.991,343
0.992,334
0.993,329
0.994,344
0.995,338
0.996,331
0.997,330
0.998,334
0.999,333
1.0,331
1.001,351
1.002,347
1.003,337
1.004,329
1.005,328
1.006,335
1.007,340
1.008,339
1.009,344
1.01,332
1.011,324
1.012,319
1.013,314
1.014,314
1.015,316
1.016,313
1.017,330
1.018,336
1.019,358
1.02,356
1.021,355
1.022,361
1.023,363
1.024,361
1.025,360
1.026,369
1.027,370
1.028,367
1.029,361
1.03,363
1.031,373
1.032,372
1.033,373
1.034,373
1.035,364
1.036,360
1.037,352
1.038,355
1.039,358
1.04,355
1.041,356
1.042,365
1.043,363
1.044,354
1.045,348
1.046,340
1.047,341
1.048,344
1.049,336
1.05,332
1.051,367
1.052,362
1.053,353
1.054,347
1.055,351
1.056,353
1.057,356
1.058,379
1.059,399
1.06,394
1.061,392
1.062,382
1.063,391
1.064,395
1.065,390
1.066,383
1.067,370
1.068,364
1.069,356
1.07,346
1.071,342
1.072,343
1.073,335
1.074,332
1.075,343
1.076,340
1.077,329
1.078,326
1.079,329
1.08,333
1.081,331
1.082,342
1.083,333
1.084,342
1.085,331
1.086,329
1.087,332
1.088,339
1.089,336
1.09,337
1.091,344
1.092,339
1.093,332
1.094,325
1.095,331
1.096,337
1.097,336
1.098,329
1.099,347
1.1,352
1.101,344
1.102,337
1.103,336
1.104,337
1.105,344
1.106,334
1.107,327
1.108,343
1.109,361
1.11,359
1.111,355
1.112,361
1.113,366
1.114,360
1.115,372
1.116,365
1.117,360
1.118,353
1.119,346
1.12,350
1.121,350
1.122,341
1.123,344
1.124,343
1.125,337
1.126,329
1.127,321
1.128,335
1.129,341
1.13,340
1.131,343
1.132,343
1.133,343
1.134,346
1.135,345
1.136,350
1.137,354
1.138,346
1.139,337
1.14,345
1.141,335
1.142,327
1.143,323
1.144,318
1.145,320
1.146,317
1.147,310
1.148,313
1.149,314
1.15,312
1.151,312
1.152,302
1.153,309
1.154,310
1.155,327
1.156,349
1.157,343
1.158,337
1.159,332
1.16,331
1.161,336
1.162,333
1.163,340
1.164,351
1.165,368
1.166,364
1.167,360
1.168,360
1.169,366
1.17,368
1.171,364
1.172,380
1.173,385
1.174,382
1.175,374
1.176,365
1.177,374
1.178,376
1.179,374
1.18,387
1.181,388
1.182,379
1.183,375
1.184,368
1.185,375
1.186,378
1.187,375
1.188,381
1.189,401
1.19,392
1.191,385
1.192,379
1.193,377
1.194,387
1.195,385
1.196,384
1.197,399
1.198,391
1.199,384
1.2,376
1.201,372
1.202,379
1.203,375
1.204,376
1.205,375
1.206,368
1.207,365
1.208,361
1.209,361
1.21,361
1.211,356
1.212,348
1.213,360
1.214,377
1.215,367
1.216,362
1.217,360
1.218,363
1.219,360
1.22,354
1.221,392
1.222,383
1.223,381
1.224,372
1.225,373
1.226,381
1.227,381
1.228,372
1.229,384
1.23,373
1.231,364
1.232,326
1.233,316
1.234,308
1.235,304
1.236,301
1.237,300
1.238,6
1.239,341
1.24,334
1.241,336
1.242,333
1.243,319
1.244,319
1.245,326
1.246,316
1.247,308
1.248,304
1.249,301
1.25,300
1.251,289
1.252,301
1.253,301
1.254,330
1.255,328
1.256,331
1.257,328
1.258,331
1.259,320
1.26,343
1.261,397
1.262,422
1.263,428
1.264,427
1.265,423
1.266,430
1.267,422
1.268,408
1.269,407
1.27,393
1.271,379
1.272,369
1.273,365
1.274,362
1.275,351
1.276,354
1.277,353
1.278,341
1.279,328
1.28,318
1.281,309
1.282,311
1.283,305
1.284,297
1.285,312
1.286,305
1.287,297
1.288,289
1.289,285
1.29,283
1.291,278
1.292,270
1.293,288
1.294,297
1.295,292
1.296,289
1.297,282
1.298,280
1.299,275
1.3,268
1.301,282
1.302,287
1.303,284
1.304,281
1.305,277
1.306,280
1.307,279
1.308,270
1.309,305
1.31,335
1.311,405
1.312,424
1.313,434
1.314,437
1.315,445
1.316,433
1.317,452
1.318,482
1.319,487
1.32,503
1.321,506
1.322,499
1.323,504
1.324,492
1.325,474
1.326,473
1.327,460
1.328,479
1.329,473
1.33,473
1.331,476
1.332,464
1.333,480
1.334,483
1.335,474
1.336,471
1.337,460
1.338,446
1.339,449
1.34,437
1.341,421
1.342,420
1.343,407
1.344,396
1.345,385
1.346,377
1.347,377
1.348,373
1.349,362
1.35,366
1.351,365
1.352,356
1.353,348
1.354,340
1.355,342
1.356,333
1.357,320
1.358,313
1.359,301
1.36,292
1.361,282
1.362,275
1.363,271
1.364,271
1.365,264
1.366,278
1.367,302
1.368,299
1.369,295
1.37,294
1.371,301
1.372,302
1.373,290
1.374,291
1.375,296
1.376,288
1.377,277
1.378,269
1.379,268
1.38,269
1.381,261
1.382,261
1.383,271
1.384,284
1.385,278
1.386,283
1.387,287
1.388,292
1.389,285
1.39,284
1.391,319
1.392,318
1.393,313
1.394,310
1.395,305
1.396,307
1.397,298
1.398,287
1.399,312
1.4,309
1.401,312
1.402,313
1.403,308
1.404,309
1.405,300
1.406,289
1.407,296
1.408,287
1.409,277
1.41,271
1.411,262
1.412,263
1.413,260
1.414,251
1.415,248
1.416,254
1.417,247
1.418,238
1.419,230
1.42,232
1.421,232
1.422,227
1.423,235
1.424,247
1.425,243
1.426,236
1.427,235
1.428,237
1.429,239
1.43,236
1.431,240
1.432,269
1.433,269
1.434,267
1.435,284
1.436,287
1.437,294
1.438,285
1.439,278
1.44,281
1.441,276
1.442,269
1.443,265
1.444,263
1.445,271
1.446,267
1.447,263
1.448,262
1.449,258
1.45,267
1.451,267
1.452,268
1.453,275
1.454,271
1.455,266
1.456,268
1.457,283
1.458,304
1.459,309
1.46,310
1.461,316
1.462,313
1.463,314
1.464,336
1.465,331
1.466,338
1.467,355
1.468,356
1.469,373
1.47,379
1.471,370
1.472,382
1.473,391
1.474,387
1.475,384
1.476,378
1.477,378
1.478,373
1.479,362
1.48,363
1.481,361
1.482,349
1.483,340
1.484,330
1.485,327
1.486,328
1.487,318
1.488,331
1.489,356
1.49,351
1.491,350
1.492,341
1.493,340
1.494,341
1.495,330
1.496,351
1.497,362
1.498,365
1.499,363
1.5,357
1.501,358
1.502,360
1.503,349
1.504,342
1.505,339
1.506,337
1.507,324
1.508,314
1.509,310
1.51,311
1.511,301
1.512,306
1.513,295
1.514,311
1.515,315
1.516,311
1.517,312
1.518,315
1.519,311
1.52,311
1.521,330
1.522,323
1.523,317
1.524,315
1.525,314
1.526,319
1.527,319
1.528,330
1.529,337
1.53,339
1.531,335
1.532,330
1.533,335
1.534,342
1.535,343
1.536,333
1.537,351
1.538,379
1.539,385
1.54,390
1.541,389
1.542,390
1.543,390
1.544,376
1.545,388
1.546,396
1.547,392
1.548,382
1.549,374
1.55,370
1.551,369
1.552,355
1.553,347
1.554,335
1.555,331
1.556,328
1.557,322
1.558,321
1.559,321
1.56,308
1.561,301
1.562,316
1.563,309
1.564,322
1.565,331
1.566,334
1.567,342
1.568,334
1.569,320
1.57,343
1.571,349
1.572,344
1.573,339
1.574,338
1.575,341
1.576,338
1.577,336
1.578,345
1.579,334
1.58,336
1.581,330
1.582,327
1.583,330
1.584,323
1.585,312
1.586,303
1.587,294
1.588,283
1.589,272
1.59,266
1.591,267
1.592,262
1.593,257
1.594,252
1.595,246
1.596,237
1.597,228
1.598,219
1.599,218
1.6,217
1.601,214
1.602,215
1.603,207
1.604,199
1.605,192
1.606,184
1.607,179
1.608,184
1.609,178
1.61,179
1.611,176
1.612,186
1.613,181
1.614,176
1.615,178
1.616,178
1.617,174
1.618,199
1.619,214
1.62,216
1.621,216
1.622,218
1.623,215
1.624,222
1.625,218
1.626,244
1.627,241
1.628,240
1.629,235
1.63,233
1.631,231
1.632,230
1.633,226
1.634,223
1.635,244
1.636,243
1.637,239
1.638,233
1.639,233
1.64,238
1.641,235
1.642,228
1.643,237
1.644,238
1.645,281
1.646,314
1.647,318
1.648,336
1.649,347
1.65,341
1.651,330
1.652,320
1.653,309
1.654,301
1.655,291
1.656,292
1.657,287
1.658,276
1.659,301
1.66,310
1.661,307
1.662,299
1.663,294
1.664,296
1.665,294
1.666,283
1.667,275
1.668,267
1.669,259
1.67,251
1.671,241
1.672,234
1.673,236
1.674,228
1.675,230
1.676,223
1.677,229
1.678,249
1.679,247
1.68,247
1.681,253
1.682,244
1.683,246
1.684,255
1.685,249
1.686,243
1.687,237
1.688,232
1.689,236
1.69,231
1.691,225
1.692,232
1.693,249
1.694,264
1.695,267
1.696,277
1.697,289
1.698,288
1.699,282
1.7,271
1.701,273
1.702,270
1.703,261
1.704,260
1.705,264
1.706,261
1.707,251
1.708,265
1.709,259
1.71,250
1.711,260
1.712,258
1.713,265
1.714,264
1.715,256
1.716,254
1.717,260
1.718,263
1.719,259
1.72,255
1.721,259
1.722,260
1.723,250
1.724,258
1.725,251
1.726,287
1.727,294
1.728,295
1.729,302
1.73,311
1.731,319
1.732,329
1.733,332
1.734,336
1.735,365
1.736,375
1.737,380
1.738,390
1.739,386
1.74,374
1.741,378
1.742,374
1.743,371
1.744,362
1.745,363
1.746,365
1.747,352
1.748,356
1.749,385
1.75,376
1.751,371
1.752,363
1.753,355
1.754,356
1.755,346
1.756,332
1.757,329
1.758,339
1.759,337
1.76,327
1.761,347
1.762,355
1.763,359
1.764,345
1.765,350
1.766,363
1.767,384
1.768,387
1.769,386
1.77,390
1.771,382
1.772,367
1.773,366
1.774,369
1.775,385
1.776,384
1.777,376
1.778,380
1.779,378
1.78,364
1.781,405
1.782,412
1.783,405
1.784,402
1.785,391
1.786,381
1.787,383
1.788,375
1.789,378
1.79,381
1.791,384
1.792,380
1.793,385
1.794,385
1.795,386
1.796,379
1.797,395
1.798,434
1.799,433
1.8,431
1.801,422
1.802,418
1.803,422
1.804,408
1.805,395
1.806,427
1.807,419
1.808,408
1.809,400
1.81,394
1.811,394
1.812,384
1.813,373
1.814,410
1.815,442
1.816,441
1.817,431
1.818,436
1.819,445
1.82,435
1.821,442
1.822,435
1.823,434
1.824,429
1.825,426
1.826,459
1.827,466
1.828,459
1.829,442
1.83,448
1.831,432
1.832,426
1.833,414
1.834,434
1.835,441
1.836,440
1.837,427
1.838,435
1.839,463
1.84,455
1.841,456
1.842,449
1.843,450
1.844,446
1.845,428
1.846,418
1.847,417
1.848,438
1.849,436
1.85,430
1.851,431
1.852,433
1.853,425
1.854,413
1.855,413
1.856,403
1.857,390
1.858,381
1.859,373
1.86,369
1.861,358
1.862,366
1.863,402
1.864,402
1.865,400
1.866,393
1.867,391
1.868,388
1.869,394
1.87,412
1.871,461
1.872,464
1.873,456
1.874,453
1.875,441
1.876,445
1.877,439
1.878,435
1.879,473
1.88,469
1.881,462
1.882,451
1.883,441
1.884,435
1.885,421
1.886,405
1.887,402
1.888,396
1.889,386
1.89,375
1.891,366
1.892,363
1.893,358
1.894,345
1.895,352
1.896,341
1.897,330
1.898,319
1.899,310
1.9,310
1.901,306
1.902,295
1.903,292
1.904,293
1.905,316
1.906,313
1.907,308
1.908,310
1.909,310
1.91,297
1.911,313
1.912,319
1.913,317
1.914,313
1.915,310
1.916,311
1.917,312
1.918,301
1.919,308
1.92,328
1.921,322
1.922,315
1.923,308
1.924,299
1.925,299
1.926,290
1.927,306
1.928,324
1.929,321
1.93,319
1.931,317
1.932,312
1.933,315
1.934,305
1.935,324
1.936,316
1.937,306
1.938,297
1.939,291
1.94,283
1.941,284
1.942,280
1.943,269
1.944,289
1.945,284
1.946,274
1.947,267
1.948,258
1.949,260
1.95,258
1.951,255
1.952,261
1.953,256
1.954,249
1.955,246
1.956,237
1.957,238
1.958,239
1.959,234
1.96,228
1.961,225
1.962,222
1.963,249
1.964,249
1.965,253
1.966,258
1.967,249
1.968,266
1.969,267
1.97,260
1.971,256
1.972,250
1.973,251
1.974,254
1.975,246
1.976,258
1.977,259
1.978,251
1.979,244
1.98,235
1.981,235
1.982,237
1.983,229
1.984,224
1.985,229
1.986,237
1.987,231
1.988,229
1.989,231
1.99,238
1.991,236
1.992,233
1.993,268
1.994,286
1.995,284
1.996,283
1.997,279
1.998,281
1.999,278
2.0,289
2.001,295
2.002,288
2.003,306
2.004,302
2.005,302
2.006,306
2.007,304
2.008,299
2.009,309
2.01,313
2.011,304
2.012,298
2.013,289
2.014,290
2.015,286
2.016,276
2.017,268
2.018,258
2.019,249
2.02,239
2.021,230
2.022,228
2.023,227
2.024,220
2.025,243
2.026,253
2.027,248
2.028,242
2.029,241
2.03,239
2.031,242
2.032,235
2.033,272
2.034,296
2.035,300
2.036,303
2.037,308
2.038,307
2.039,311
2.04,305
2.041,302
2.042,310
2.043,312
2.044,310
2.045,319
2.046,319
2.047,325
2.048,340
2.049,332
2.05,335
2.051,330
2.052,321
2.053,318
2.054,315
2.055,320
2.056,314
2.057,311
2.058,308
2.059,300
2.06,294
2.061,307
2.062,308
2.063,314
2.064,314
2.065,302
2.066,298
2.067,313
2.068,320
2.069,318
2.07,320
2.071,320
2.072,317
2.073,316
2.074,321
2.075,323
2.076,318
2.077,312
2.078,313
2.079,318
2.08,324
2.081,313
2.082,302
2.083,305
2.084,305
2.085,302
2.086,294
2.087,301
2.088,302
2.089,291
2.09,286
2.091,305
2.092,334
2.093,345
2.094,350
2.095,354
2.096,359
2.097,350
2.098,363
2.099,390
2.1,390
2.101,386
2.102,387
2.103,385
2.104,387
2.105,373
2.106,392
2.107,391
2.108,382
2.109,380
2.11,374
2.111,371
2.112,375
2.113,365
2.114,355
2.115,354
2.116,341
2.117,332
2.118,325
2.119,319
2.12,320
2.121,313
2.122,304
2.123,299
2.124,289
2.125,305
2.126,305
2.127,303
2.128,303
2.129,303
2.13,294
2.131,329
2.132,335
2.133,336
2.134,328
2.135,320
2.136,320
2.137,319
2.138,308
2.139,323
2.14,314
2.141,318
2.142,312
2.143,303
2.144,298
2.145,296
2.146,286
2.147,330
2.148,328
2.149,327
2.15,322
2.151,317
2.152,316
2.153,319
2.154,310
2.155,301
2.156,356
2.157,348
2.158,348
2.159,343
2.16,343
2.161,345
2.162,335
2.163,323
2.164,340
2.165,343
2.166,336
2.167,331
2.168,320
2.169,322
2.17,310
2.171,300
2.172,335
2.173,333
2.174,332
2.175,326
2.176,326
2.177,328
2.178,323
2.179,310
2.18,329
2.181,318
2.182,312
2.183,302
2.184,294
2.185,296
2.186,293
2.187,281
2.188,284
2.189,278
2.19,268
2.191,259
2.192,254
2.193,253
2.194,251
2.195,246
2.196,265
2.197,276
2.198,277
2.199,271
2.2,264
2.201,262
2.202,265
2.203,256
2.204,250
2.205,262
2.206,268
2.207,263
2.208,264
2.209,259
2.21,260
2.211,252
2.212,257
2.213,260
2.214,257
2.215,255
2.216,259
2.217,291
2.218,300
2.219,299
2.22,309
2.221,343
2.222,344
2.223,347
2.224,342
2.225,364
2.226,378
2.227,378
2.228,385
2.229,394
2.23,392
2.231,388
2.232,383
2.233,379
2.234,388
2.235,383
2.236,371
2.237,394
2.238,389
2.239,400
2.24,400
2.241,400
2.242,408
2.243,402
2.244,386
2.245,393
2.246,393
2.247,392
2.248,386
2.249,378
2.25,377
2.251,373
2.252,360
2.253,369
2.254,361
2.255,365
2.256,357
2.257,347
2.258,347
2.259,348
2.26,333
2.261,350
2.262,342
2.263,333
2.264,322
2.265,323
2.266,327
2.267,327
2.268,318
2.269,343
2.27,384
2.271,381
2.272,377
2.273,377
2.274,379
2.275,380
2.276,367
2.277,367
2.278,364
2.279,350
2.28,337
2.281,328
2.282,324
2.283,326
2.284,315
2.285,305
2.286,305
2.287,331
2.288,329
2.289,323
2.29,319
2.291,323
2.292,314
2.293,317
2.294,356
2.295,355
2.296,351
2.297,347
2.298,337
2.299,335
2.3,335
2.301,323
2.302,367
2.303,376
2.304,377
2.305,379
2.306,376
2.307,383
2.308,381
2.309,367
2.31,393
2.311,386
2.312,375
2.313,366
2.314,357
2.315,355
2.316,353
2.317,339
2.318,340
2.319,364
2.32,356
2.321,363
2.322,360
2.323,360
2.324,361
2.325,348
2.326,342
2.327,348
2.328,335
2.329,326
2.33,320
2.331,315
2.332,316
2.333,306
2.334,312
2.335,306
2.336,311
2.337,306
2.338,297
2.339,294
2.34,297
2.341,297
2.342,317
2.343,317
2.344,340
2.345,346
2.346,346
2.347,344
2.348,348
2.349,340
2.35,328
2.351,323
2.352,323
2.353,328
2.354,320
2.355,316
2.356,319
2.357,314
2.358,305
2.359,332
2.36,342
2.361,334
2.362,342
2.363,342
2.364,347
2.365,343
2.366,329
2.367,342
2.368,335
2.369,328
2.37,317
2.371,313
2.372,319
2.373,318
2.374,309
2.375,312
2.376,329
2.377,329
2.378,329
2.379,326
2.38,332
2.381,332
2.382,320
2.383,322
2.384,325
2.385,317
2.386,307
2.387,308
2.388,301
2.389,309
2.39,301
2.391,291
2.392,298
2.393,329
2.394,338
2.395,335
2.396,342
2.397,348
2.398,339
2.399,354
2.4,373
2.401,368
2.402,363
2.403,358
2.404,357
2.405,355
2.406,343
2.407,346
2.408,344
2.409,352
2.41,346
2.411,339
2.412,347
2.413,355
2.414,350
2.415,338
2.416,356
2.417,350
2.418,347
2.419,377
2.42,381
2.421,376
2.422,374
2.423,360
2.424,383
2.425,379
2.426,372
2.427,368
2.428,362
2.429,364
2.43,360
2.431,345
2.432,345
2.433,333
2.434,320
2.435,313
2.436,304
2.437,303
2.438,301
2.439,293
2.44,327
2.441,345
2.442,344
2.443,338
2.444,334
2.445,334
2.446,336
2.447,323
2.448,318
2.449,307
2.45,301
2.451,295
2.452,290
2.453,288
2.454,285
2.455,277
2.456,291
2.457,319
2.458,314
2.459,309
2.46,306
2.461,303
2.462,308
2.463,306
2.464,303
2.465,317
2.466,320
2.467,314
2.468,313
2.469,310
2.47,316
2.471,309
2.472,306
2.473,320
2.474,320
2.475,315
2.476,310
2.477,309
2.478,310
2.479,305
2.48,293
2.481,291
2.482,285
2.483,300
2.484,293
2.485,290
2.486,293
2.487,290
2.488,279
2.489,305
2.49,298
2.491,291
2.492,281
2.493,274
2.494,275
2.495,276
2.496,265
2.497,281
2.498,323
2.499,323
2.5,324
2.501,320
2.502,327
2.503,330
2.504,317
2.505,318
2.506,318
2.507,335
2.508,330
2.509,321
2.51,322
2.511,322
2.512,310
2.513,318
2.514,343
2.515,378
2.516,385
2.517,379
2.518,384
2.519,386
2.52,374
2.521,360
2.522,367
2.523,358
2.524,368
2.525,359
2.526,351
2.527,355
2.528,348
2.529,338
2.53,365
2.531,359
2.532,353
2.533,344
2.534,337
2.535,336
2.536,333
2.537,320
2.538,322
2.539,314
2.54,304
2.541,294
2.542,287
2.543,288
2.544,283
2.545,278
2.546,299
2.547,331
2.548,329
2.549,334
2.55,332
2.551,333
2.552,328
2.553,317
2.554,330
2.555,343
2.556,360
2.557,361
2.558,353
2.559,356
2.56,359
2.561,345
2.562,387
2.563,410
2.564,406
2.565,411
2.566,401
2.567,406
2.568,408
2.569,395
2.57,409
2.571,397
2.572,386
2.573,379
2.574,367
2.575,363
2.576,364
2.577,352
2.578,344
2.579,349
2.58,352
2.581,345
2.582,333
2.583,328
2.584,330
2.585,321
2.586,319
2.587,360
2.588,357
2.589,350
2.59,347
2.591,341
2.592,346
2.593,348
2.594,369
2.595,398
2.596,408
2.597,411
2.598,406
2.599,404
2.6,409
2.601,406
2.602,391
2.603,398
2.604,393
2.605,387
2.606,376
2.607,367
2.608,363
2.609,360
2.61,346
2.611,375
2.612,372
2.613,378
2.614,374
2.615,367
2.616,371
2.617,370
2.618,366
2.619,373
2.62,363
2.621,358
2.622,364
2.623,363
2.624,365
2.625,365
2.626,352
2.627,348
2.628,351
2.629,339
2.63,332
2.631,319
2.632,312
2.633,311
2.634,299
2.635,300
2.636,299
2.637,295
2.638,286
2.639,283
2.64,276
2.641,278
2.642,272
2.643,265
2.644,280
2.645,317
2.646,319
2.647,315
2.648,314
2.649,320
2.65,314
2.651,308
2.652,315
2.653,310
2.654,312
2.655,307
2.656,299
2.657,304
2.658,301
2.659,297
2.66,315
2.661,309
2.662,302
2.663,295
2.664,288
2.665,291
2.666,286
2.667,287
2.668,286
2.669,308
2.67,332
2.671,334
2.672,332
2.673,338
2.674,337
2.675,326
2.676,346
2.677,345
2.678,343
2.679,334
2.68,327
2.681,327
2.682,329
2.683,317
2.684,310
2.685,310
2.686,302
2.687,292
2.688,284
2.689,284
2.69,289
2.691,279
2.692,274
2.693,284
2.694,328
2.695,326
2.696,322
2.697,326
2.698,341
2.699,337
2.7,337
2.701,329
2.702,331
2.703,324
2.704,315
2.705,310
2.706,313
2.707,306
2.708,295
2.709,313
2.71,307
2.711,301
2.712,294
2.713,291
2.714,293
2.715,287
2.716,276
2.717,270
2.718,266
2.719,263
2.72,256
2.721,253
2.722,255
2.723,252
2.724,250
2.725,258
2.726,265
2.727,262
2.728,261
2.729,259
2.73,266
2.731,266
2.732,264
2.733,279
2.734,272
2.735,264
2.736,258
2.737,252
2.738,255
2.739,257
2.74,250
2.741,245
2.742,268
2.743,262
2.744,257
2.745,252
2.746,252
2.747,253
2.748,248
2.749,251
2.75,271
2.751,269
2.752,268
2.753,264
2.754,269
2.755,277
2.756,274
2.757,265
2.758,256
2.759,250
2.76,243
2.761,251
2.762,263
2.763,270
2.764,266
2.765,260
2.766,273
2.767,284
2.768,282
2.769,280
2.77,274
2.771,278
2.772,277
2.773,305
2.774,328
2.775,346
2.776,350
2.777,345
2.778,334
2.779,339
2.78,338
2.781,324
2.782,315
2.783,319
2.784,332
2.785,326
2.786,329
2.787,338
2.788,337
2.789,327
2.79,344
2.791,338
2.792,344
2.793,345
2.794,343
2.795,346
2.796,349
2.797,335
2.798,334
2.799,369
2.8,408
2.801,409
2.802,414
2.803,417
2.804,421
2.805,406
2.806,413
2.807,441
2.808,440
2.809,432
2.81,425
2.811,415
2.812,417
2.813,402
2.814,396
2.815,411
2.816,455
2.817,457
2.818,451
2.819,447
2.82,451
2.821,438
2.822,437
2.823,434
2.824,419
2.825,411
2.826,415
2.827,416
2.828,419
2.829,411
2.83,394
2.831,386
2.832,433
2.833,428
2.834,425
2.835,425
2.836,426
2.837,417
2.838,401
2.839,421
2.84,413
2.841,402
2.842,392
2.843,383
2.844,384
2.845,378
2.846,367
2.847,388
2.848,398
2.849,408
2.85,401
2.851,392
2.852,399
2.853,402
2.854,389
2.855,395
2.856,406
2.857,395
2.858,388
2.859,382
2.86,384
2.861,385
2.862,370
2.863,389
2.864,383
2.865,395
2.866,387
2.867,389
2.868,389
2.869,389
2.87,381
2.871,373
2.872,388
2.873,381
2.874,399
2.875,396
2.876,395
2.877,395
2.878,382
2.879,370
2.88,406
2.881,417
2.882,419
2.883,420
2.884,410
2.885,410
2.886,400
2.887,385
2.888,392
2.889,388
2.89,379
2.891,372
2.892,362
2.893,362
2.894,354
2.895,347
2.896,382
2.897,387
2.898,384
2.899,393
2.9,388
2.901,393
2.902,390
2.903,381
2.904,395
2.905,413
2.906,407
2.907,399
2.908,393
2.909,397
2.91,394
2.911,380
2.912,370
2.913,369
2.914,366
2.915,354
2.916,343
2.917,335
2.918,334
2.919,322
2.92,336
2.921,329
2.922,321
2.923,312
2.924,306
2.925,299
2.926,301
2.927,293
2.928,290
2.929,302
2.93,295
2.931,291
2.932,284
2.933,276
2.934,280
2.935,272
2.936,267
2.937,267
2.938,266
2.939,257
2.94,252
2.941,247
2.942,252
2.943,247
2.944,240
2.945,235
2.946,269
2.947,290
2.948,296
2.949,297
2.95,306
2.951,304
2.952,304
2.953,328
2.954,379
2.955,386
2.956,391
2.957,387
2.958,391
2.959,385
2.96,379
2.961,403
2.962,395
2.963,389
2.964,382
2.965,372
2.966,368
2.967,367
2.968,352
2.969,356
2.97,352
2.971,342
2.972,332
2.973,322
2.974,317
2.975,314
2.976,306
2.977,334
2.978,333
2.979,326
2.98,317
2.981,309
2.982,306
2.983,308
2.984,301
2.985,291
2.986,298
2.987,298
2.988,291
2.989,286
2.99,281
2.991,283
2.992,274
2.993,282
2.994,272
2.995,265
2.996,259
2.997,252
2.998,244
2.999,247
3.0,241
3.001,238
3.002,245
3.003,250
3.004,244
3.005,246
3.006,247
3.007,257
3.008,249
3.009,248
3.01,264
3.011,264
3.012,256
3.013,248
3.014,244
3.015,247
3.016,244
3.017,240
3.018,254
3.019,259
3.02,267
3.021,263
3.022,259
3.023,264
3.024,264
3.025,255
3.026,254
3.027,258
3.028,250
3.029,244
3.03,235
3.031,237
3.032,233
3.033,228
3.034,239
3.035,242
3.036,235
3.037,227
3.038,224
3.039,229
3.04,233
3.041,225
3.042,240
3.043,252
3.044,268
3.045,268
3.046,267
3.047,272
3.048,277
3.049,271
3.05,267
3.051,296
3.052,289
3.053,285
3.054,283
3.055,278
3.056,282
3.057,273
3.058,280
3.059,308
3.06,338
3.061,345
3.062,342
3.063,342
3.064,346
3.065,337
3.066,334
3.067,356
3.068,366
3.069,368
3.07,365
3.071,360
3.072,363
3.073,357
3.074,342
3.075,339
3.076,345
3.077,334
3.078,325
3.079,319
3.08,318
3.081,313
3.082,305
3.083,320
3.084,330
3.085,327
3.086,321
3.087,317
3.088,316
3.089,315
3.09,303
3.091,309
3.092,315
3.093,305
3.094,298
3.095,329
3.096,337
3.097,342
3.098,332
3.099,323
3.1,334
3.101,345
3.102,341
3.103,333
3.104,332
3.105,332
3.106,322
3.107,313
3.108,314
3.109,307
3.11,297
3.111,288
3.112,283
3.113,285
3.114,276
3.115,277
3.116,280
3.117,281
3.118,275
3.119,270
3.12,265
3.121,270
3.122,263
3.123,272
3.124,304
3.125,301
3.126,294
3.127,290
3.128,289
3.129,294
3.13,287
3.131,279
3.132,313
3.133,314
3.134,310
3.135,308
3.136,308
3.137,310
3.138,306
3.139,293
3.14,311
3.141,334
3.142,340
3.143,337
3.144,333
3.145,332
3.146,331
3.147,317
3.148,336
3.149,357
3.15,353
3.151,347
3.152,344
3.153,345
3.154,344
3.155,330
3.156,321
3.157,314
3.158,318
3.159,310
3.16,302
3.161,291
3.162,291
3.163,280
3.164,278
3.165,282
3.166,275
3.167,277
3.168,273
3.169,275
3.17,278
3.171,270
3.172,294
3.173,302
3.174,295
3.175,293
3.176,292
3.177,296
3.178,302
3.179,297
3.18,316
3.181,317
3.182,325
3.183,325
3.184,325
3.185,324
3.186,329
3.187,322
3.188,322
3.189,315
3.19,311
3.191,304
3.192,297
3.193,294
3.194,297
3.195,292
3.196,326
3.197,321
3.198,334
3.199,331
3.2,333
3.201,330
3.202,330
3.203,324
3.204,312
3.205,304
3.206,293
3.207,285
3.208,279
3.209,270
3.21,268
3.211,268
3.212,259
3.213,260
3.214,270
3.215,260
3.216,253
3.217,243
3.218,240
3.219,239
3.22,230
3.221,230
3.222,223
3.223,214
3.224,206
3.225,200
3.226,199
3.227,204
3.228,200
3.229,222
3.23,241
3.231,241
3.232,235
3.233,230
3.234,231
3.235,236
3.236,230
3.237,222
3.238,233
3.239,227
3.24,233
3.241,230
3.242,223
3.243,228
3.244,226
3.245,228
3.246,259
3.247,285
3.248,289
3.249,291
3.25,291
3.251,294
3.252,287
3.253,280
3.254,272
3.255,296
3.256,290
3.257,284
3.258,279
3.259,282
3.26,282
3.261,270
3.262,286
3.263,295
3.264,297
3.265,293
3.266,286
3.267,285
3.268,288
3.269,277
3.27,269
3.271,273
3.272,267
3.273,263
3.274,261
3.275,272
3.276,278
3.277,278
3.278,279
3.279,273
3.28,279
3.281,281
3.282,279
3.283,284
3.284,284
3.285,279
3.286,298
3.287,339
3.288,348
3.289,354
3.29,348
3.291,341
3.292,346
3.293,335
3.294,324
3.295,339
3.296,337
3.297,360
3.298,361
3.299,364
3.3,368
3.301,357
3.302,343
3.303,346
3.304,335
3.305,327
3.306,317
3.307,315
3.308,311
3.309,300
3.31,303
3.311,307
3.312,298
3.313,292
3.314,290
3.315,285
3.316,286
3.317,282
3.318,271
3.319,280
3.32,281
3.321,274
3.322,268
3.323,263
3.324,265
3.325,264
3.326,254
3.327,257
3.328,249
3.329,245
3.33,241
3.331,238
3.332,237
3.333,237
3.334,238
3.335,255
3.336,254
3.337,258
3.338,251
3.339,243
3.34,248
3.341,251
3.342,245
3.343,240
3.344,233
3.345,225
3.346,225
3.347,223
3.348,221
3.349,225
3.35,220
3.351,225
3.352,218
3.353,221
3.354,227
3.355,234
3.356,239
3.357,248
3.358,245
3.359,255
3.36,247
3.361,238
3.362,236
3.363,232
3.364,227
3.365,233
3.366,229
3.367,228
3.368,241
3.369,258
3.37,261
3.371,263
3.372,259
3.373,263
3.374,260
3.375,252
3.376,244
3.377,235
3.378,227
3.379,220
3.38,212
3.381,215
3.382,213
3.383,208
3.384,235
3.385,238
3.386,240
3.387,237
3.388,237
3.389,243
3.39,243
3.391,236
3.392,265
3.393,264
3.394,265
3.395,262
3.396,258
3.397,270
3.398,277
3.399,268
3.4,302
3.401,319
3.402,322
3.403,318
3.404,317
3.405,313
3.406,318
3.407,308
3.408,334
3.409,347
3.41,344
3.411,337
3.412,332
3.413,325
3.414,328
3.415,320
3.416,309
3.417,325
3.418,320
3.419,309
3.42,302
3.421,300
3.422,301
3.423,292
3.424,283
3.425,297
3.426,290
3.427,285
3.428,278
3.429,269
3.43,265
3.431,262
3.432,252
3.433,272
3.434,285
3.435,279
3.436,276
3.437,268
3.438,270
3.439,269
3.44,260
3.441,275
3.442,279
3.443,274
3.444,268
3.445,261
3.446,259
3.447,262
3.448,253
3.449,247
3.45,268
3.451,261
3.452,265
3.453,281
3.454,291
3.455,295
3.456,285
3.457,297
3.458,314
3.459,321
3.46,327
3.461,327
3.462,328
3.463,332
3.464,320
3.465,323
3.466,327
3.467,318
3.468,307
3.469,302
3.47,296
3.471,297
3.472,286
3.473,288
3.474,315
3.475,311
3.476,305
3.477,302
3.478,301
3.479,305
3.48,297
3.481,288
3.482,326
3.483,321
3.484,327
3.485,325
3.486,324
3.487,326
3.488,321
3.489,312
3.49,335
3.491,334
3.492,332
3.493,323
3.494,321
3.495,325
3.496,324
3.497,312
3.498,319
3.499,321
3.5,323
3.501,316
3.502,338
3.503,382
3.504,402
3.505,397
3.506,403
3.507,394
3.508,385
3.509,375
3.51,368
3.511,361
3.512,358
3.513,344
3.514,331
3.515,383
3.516,379
3.517,379
3.518,375
3.519,374
3.52,374
3.521,362
3.522,362
3.523,366
3.524,366
3.525,363
3.526,357
3.527,356
3.528,360
3.529,348
3.53,335
3.531,354
3.532,347
3.533,342
3.534,344
3.535,343
3.536,345
3.537,338
3.538,337
3.539,326
3.54,357
3.541,356
3.542,350
3.543,348
3.544,350
3.545,343
3.546,329
3.547,335
3.548,328
3.549,317
3.55,313
3.551,304
3.552,305
3.553,297
3.554,286
3.555,307
3.556,326
3.557,348
3.558,350
3.559,349
3.56,354
3.561,351
3.562,340
3.563,332
3.564,326
3.565,316
3.566,308
3.567,301
3.568,300
3.569,299
3.57,292
3.571,322
3.572,346
3.573,363
3.574,370
3.575,363
3.576,363
3.577,364
3.578,351
3.579,348
3.58,343
3.581,353
3.582,351
3.583,346
3.584,346
3.585,347
3.586,335
3.587,342
3.588,344
3.589,395
3.59,396
3.591,404
3.592,411
3.593,417
3.594,406
3.595,416
3.596,429
3.597,452
3.598,454
3.599,447
3.6,456
3.601,473
3.602,475
3.603,463
3.604,459
3.605,458
3.606,466
3.607,457
3.608,464
3.609,479
3.61,480
3.611,469
3.612,454
3.613,465
3.614,463
3.615,455
3.616,447
3.617,448
3.618,439
3.619,421
3.62,413
3.621,427
3.622,427
3.623,416
3.624,409
3.625,404
3.626,399
3.627,385
3.628,370
3.629,378
3.63,382
3.631,372
3.632,374
3.633,374
3.634,378
3.635,364
3.636,377
3.637,386
3.638,377
3.639,372
3.64,370
3.641,373
3.642,372
