timestamp,emg_value
0.0,458
0.001,266
0.002,278
0.003,271
0.004,286
0.005,301
0.006,307
0.007,310
0.008,300
0.009,290
0.01,278
0.011,278
0.012,286
0.013,293
0.014,292
0.015,296
0.016,286
0.017,282
0.018,315
0.019,314
0.02,327
0.021,328
0.022,337
0.023,344
0.024,340
0.025,326
0.026,340
0.027,338
0.028,328
0.029,330
0.03,331
0.031,341
0.032,338
0.033,330
0.034,318
0.035,318
0.036,308
0.037,301
0.038,297
0.039,300
0.04,300
0.041,288
0.042,299
0.043,308
0.044,300
0.045,294
0.046,287
0.047,290
0.048,290
0.049,280
0.05,299
0.051,307
0.052,302
0.053,295
0.054,308
0.055,311
0.056,321
0.057,311
0.058,325
0.059,316
0.06,329
0.061,331
0.062,326
0.063,332
0.064,333
0.065,319
0.066,310
0.067,344
0.068,338
0.069,334
0.07,340
0.071,333
0.072,338
0.073,328
0.074,320
0.075,350
0.076,346
0.077,339
0.078,337
0.079,329
0.08,331
0.081,322
0.082,323
0.083,328
0.084,330
0.085,321
0.086,315
0.087,316
0.088,316
0.089,307
0.09,295
0.091,294
0.092,330
0.093,326
0.094,323
0.095,325
0.096,327
0.097,319
0.098,344
0.099,364
0.1,367
0.101,361
0.102,364
0.103,360
0.104,360
0.105,355
0.106,341
0.107,360
0.108,360
0.109,356
0.11,351
0.111,345
0.112,351
0.113,348
0.114,342
0.115,345
0.116,351
0.117,348
0.118,351
0.119,349
0.12,352
0.121,349
0.122,340
0.123,353
0.124,397
0.125,399
0.126,394
0.127,383
0.128,384
0.129,386
0.13,382
0.131,371
0.132,359
0.133,346
0.134,334
0.135,328
0.136,317
0.137,319
0.138,307
0.139,297
0.14,299
0.141,320
0.142,335
0.143,332
0.144,333
0.145,340
0.146,336
0.147,325
0.148,324
0.149,313
0.15,304
0.151,294
0.152,285
0.153,285
0.154,276
0.155,264
0.156,276
0.157,270
0.158,261
0.159,255
0.16,254
0.161,255
0.162,253
0.163,244
0.164,254
0.165,260
0.166,254
0.167,250
0.168,245
0.169,248
0.17,248
0.171,247
0.172,262
0.173,258
0.174,284
0.175,298
0.176,303
0.177,313
0.178,318
0.179,311
0.18,315
0.181,324
0.182,322
0.183,314
0.184,309
0.185,308
0.186,311
0.187,302
0.188,296
0.189,348
0.19,348
0.191,357
0.192,358
0.193,359
0.194,365
0.195,361
0.196,368
0.197,358
0.198,351
0.199,367
0.2,362
0.201,360
0.202,365
0.203,363
0.204,348
0.205,356
0.206,353
0.207,347
0.208,338
0.209,332
0.21,332
0.211,326
0.212,316
0.213,358
0.214,387
0.215,386
0.216,381
0.217,368
0.218,372
0.219,367
0.22,364
0.221,370
0.222,358
0.223,356
0.224,349
0.225,341
0.226,339
0.227,335
0.228,324
0.229,358
0.23,361
0.231,357
0.232,348
0.233,346
0.234,348
0.235,350
0.236,338
0.237,334
0.238,338
0.239,344
0.24,339
0.241,336
0.242,332
0.243,330
0.244,320
0.245,321
0.246,337
0.247,330
0.248,321
0.249,316
0.25,308
0.251,311
0.252,304
0.253,299
0.254,303
0.255,321
0.256,316
0.257,309
0.258,306
0.259,310
0.26,303
0.261,293
0.262,306
0.263,304
0.264,299
0.265,294
0.266,285
0.267,284
0.268,278
0.269,268
0.27,281
0.271,292
0.272,296
0.273,294
0.274,287
0.275,291
0.276,290
0.277,282
0.278,295
0.279,310
0.28,314
0.281,314
0.282,312
0.283,318
0.284,314
0.285,308
0.286,305
0.287,322
0.288,319
0.289,316
0.29,311
0.291,314
0.292,315
0.293,308
0.294,323
0.295,339
0.296,337
0.297,330
0.298,322
0.299,319
0.3,322
0.301,311
0.302,307
0.303,296
0.304,285
0.305,274
0.306,264
0.307,258
0.308,260
0.309,255
0.31,251
0.311,267
0.312,290
0.313,286
0.314,283
0.315,286
0.316,293
0.317,289
0.318,280
0.319,285
0.32,280
0.321,272
0.322,270
0.323,275
0.324,282
0.325,279
0.326,268
0.327,272
0.328,276
0.329,272
0.33,266
0.331,260
0.332,263
0.333,261
0.334,253
0.335,278
0.336,276
0.337,271
0.338,263
0.339,256
0.34,255
0.341,256
0.342,248
0.343,270
0.344,282
0.345,284
0.346,277
0.347,272
0.348,278
0.349,278
0.35,267
0.351,280
0.352,299
0.353,301
0.354,304
0.355,302
0.356,306
0.357,309
0.358,301
0.359,315
0.36,317
0.361,309
0.362,304
0.363,298
0.364,298
0.365,299
0.366,288
0.367,298
0.368,313
0.369,309
0.37,304
0.371,297
0.372,292
0.373,295
0.374,288
0.375,285
0.376,282
0.377,272
0.378,266
0.379,258
0.38,252
0.381,255
0.382,250
0.383,241
0.384,302
0.385,365
0.386,373
0.387,377
0.388,381
0.389,391
0.39,393
0.391,383
0.392,405
0.393,396
0.394,384
0.395,375
0.396,372
0.397,373
0.398,368
0.399,353
0.4,379
0.401,375
0.402,383
0.403,382
0.404,381
0.405,382
0.406,386
0.407,386
0.408,394
0.409,387
0.41,382
0.411,370
0.412,365
0.413,361
0.414,365
0.415,353
0.416,343
0.417,360
0.418,382
0.419,376
0.42,370
0.421,370
0.422,370
0.423,378
0.424,367
0.425,385
0.426,410
0.427,413
0.428,410
0.429,406
0.43,408
0.431,394
0.432,387
0.433,398
0.434,391
0.435,383
0.436,375
0.437,368
0.438,368
0.439,359
0.44,352
0.441,381
0.442,396
0.443,403
0.444,402
0.445,398
0.446,399
0.447,391
0.448,377
0.449,380
0.45,368
0.451,355
0.452,357
0.453,351
0.454,352
0.455,350
0.456,336
0.457,354
0.458,363
0.459,365
0.46,360
0.461,356
0.462,355
0.463,354
0.464,342
0.465,364
0.466,362
0.467,354
0.468,347
0.469,339
0.47,331
0.471,326
0.472,316
0.473,322
0.474,323
0.475,358
0.476,360
0.477,365
0.478,366
0.479,376
0.48,371
0.481,367
0.482,389
0.483,412
0.484,417
0.485,421
0.486,423
0.487,426
0.488,413
0.489,407
0.49,433
0.491,423
0.492,416
0.493,407
0.494,404
0.495,404
0.496,390
0.497,380
0.498,416
0.499,429
0.5,427
0.501,421
0.502,413
0.503,411
0.504,401
0.505,388
0.506,388
0.507,401
0.508,393
0.509,385
0.51,376
0.511,376
0.512,371
0.513,363
0.514,373
0.515,367
0.516,366
0.517,360
0.518,358
0.519,357
0.52,355
0.521,342
0.522,357
0.523,413
0.524,408
0.525,412
0.526,411
0.527,418
0.528,423
0.529,408
0.53,420
0.531,410
0.532,410
0.533,406
0.534,401
0.535,391
0.536,394
0.537,384
0.538,376
0.539,391
0.54,384
0.541,378
0.542,379
0.543,380
0.544,379
0.545,365
0.546,361
0.547,349
0.548,343
0.549,334
0.55,326
0.551,316
0.552,313
0.553,303
0.554,293
0.555,304
0.556,317
0.557,314
0.558,307
0.559,299
0.56,306
0.561,301
0.562,290
0.563,312
0.564,311
0.565,345
0.566,351
0.567,346
0.568,345
0.569,343
0.57,351
0.571,371
0.572,375
0.573,374
0.574,365
0.575,361
0.576,361
0.577,359
0.578,345
0.579,348
0.58,343
0.581,332
0.582,332
0.583,326
0.584,326
0.585,321
0.586,309
0.587,309
0.588,331
0.589,323
0.59,399
0.591,420
0.592,438
0.593,444
0.594,435
0.595,424
0.596,432
0.597,437
0.598,433
0.599,456
0.6,466
0.601,472
0.602,460
0.603,461
0.604,462
0.605,470
0.606,460
0.607,458
0.608,452
0.609,454
0.61,440
0.611,423
0.612,431
0.613,422
0.614,411
0.615,429
0.616,429
0.617,432
0.618,421
0.619,417
0.62,435
0.621,425
0.622,417
0.623,407
0.624,395
0.625,390
0.626,378
0.627,362
0.628,385
0.629,386
0.63,378
0.631,394
0.632,389
0.633,396
0.634,389
0.635,380
0.636,397
0.637,385
0.638,381
0.639,378
0.64,372
0.641,372
0.642,368
0.643,354
0.644,346
0.645,348
0.646,336
0.647,326
0.648,315
0.649,315
0.65,311
0.651,302
0.652,304
0.653,311
0.654,329
0.655,333
0.656,329
0.657,329
0.658,331
0.659,320
0.66,365
0.661,412
0.662,431
0.663,438
0.664,443
0.665,440
0.666,445
0.667,434
0.668,439
0.669,468
0.67,460
0.671,454
0.672,448
0.673,443
0.674,444
0.675,432
0.676,416
0.677,453
0.678,445
0.679,439
0.68,435
0.681,433
0.682,440
0.683,429
0.684,415
0.685,426
0.686,450
0.687,459
0.688,455
0.689,462
0.69,470
0.691,469
0.692,454
0.693,440
0.694,447
0.695,436
0.696,431
0.697,426
0.698,425
0.699,417
0.7,403
0.701,410
0.702,449
0.703,471
0.704,472
0.705,468
0.706,465
0.707,463
0.708,446
0.709,428
0.71,447
0.711,449
0.712,444
0.713,438
0.714,439
0.715,441
0.716,425
0.717,415
0.718,433
0.719,428
0.72,435
0.721,434
0.722,434
0.723,438
0.724,423
0.725,478
0.726,498
0.727,489
0.728,491
0.729,488
0.73,485
0.731,489
0.732,480
0.733,468
0.734,527
0.735,532
0.736,533
0.737,524
0.738,513
0.739,513
0.74,505
0.741,489
0.742,495
0.743,483
0.744,470
0.745,459
0.746,446
0.747,442
0.748,434
0.749,454
0.75,443
0.751,469
0.752,465
0.753,456
0.754,453
0.755,451
0.756,443
0.757,425
0.758,409
0.759,405
0.76,407
0.761,399
0.762,391
0.763,385
0.764,377
0.765,362
0.766,362
0.767,411
0.768,406
0.769,402
0.77,393
0.771,399
0.772,404
0.773,392
0.774,379
0.775,381
0.776,380
0.777,373
0.778,370
0.779,364
0.78,363
0.781,353
0.782,352
0.783,346
0.784,331
0.785,322
0.786,311
0.787,306
0.788,305
0.789,298
0.79,299
0.791,317
0.792,325
0.793,323
0.794,322
0.795,315
0.796,321
0.797,314
0.798,316
0.799,338
0.8,329
0.801,322
0.802,313
0.803,309
0.804,310
0.805,304
0.806,294
0.807,318
0.808,317
0.809,312
0.81,307
0.811,307
0.812,307
0.813,305
0.814,294
0.815,316
0.816,312
0.817,310
0.818,316
0.819,315
0.82,313
0.821,319
0.822,308
0.823,314
0.824,340
0.825,336
0.826,329
0.827,322
0.828,324
0.829,327
0.83,315
0.831,302
0.832,293
0.833,286
0.834,279
0.835,271
0.836,264
0.837,263
0.838,256
0.839,261
0.84,289
0.841,288
0.842,283
0.843,282
0.844,288
0.845,291
0.846,281
0.847,276
0.848,308
0.849,330
0.85,330
0.851,330
0.852,332
0.853,336
0.854,331
0.855,324
0.856,343
0.857,339
0.858,335
0.859,337
0.86,329
0.861,327
0.862,315
0.863,307
0.864,295
0.865,284
0.866,275
0.867,280
0.868,275
0.869,277
0.87,279
0.871,268
0.872,277
0.873,286
0.874,280
0.875,275
0.876,269
0.877,271
0.878,267
0.879,257
0.88,250
0.881,257
0.882,306
0.883,310
0.884,311
0.885,319
0.886,324
0.887,316
0.888,333
0.889,333
0.89,328
0.891,321
0.892,324
0.893,320
0.894,322
0.895,309
0.896,311
0.897,315
0.898,307
0.899,303
0.9,301
0.901,305
0.902,307
0.903,299
0.904,296
0.905,306
0.906,297
0.907,292
0.908,284
0.909,285
0.91,291
0.911,286
0.912,279
0.913,313
0.914,311
0.915,316
0.916,312
0.917,308
0.918,313
0.919,308
0.92,295
0.921,299
0.922,307
0.923,303
0.924,304
0.925,305
0.926,308
0.927,304
0.928,294
0.929,306
0.93,313
0.931,307
0.932,298
0.933,291
0.934,297
0.935,294
0.936,289
0.937,301
0.938,317
0.939,313
0.94,309
0.941,308
0.942,310
0.943,313
0.944,301
0.945,306
0.946,296
0.947,285
0.948,275
0.949,268
0.95,266
0.951,267
0.952,259
0.953,265
0.954,280
0.955,295
0.956,293
0.957,294
0.958,295
0.959,300
0.96,296
0.961,321
0.962,339
0.963,396
0.964,410
0.965,419
0.966,427
0.967,433
0.968,427
0.969,412
0.97,404
0.971,397
0.972,418
0.973,420
0.974,416
0.975,419
0.976,410
0.977,400
0.978,424
0.979,417
0.98,411
0.981,403
0.982,396
0.983,398
0.984,400
0.985,403
0.986,393
0.987,408
0.988,405
0.989,396
0.99,388
0.991,393
0.992,391
0.993,377
0.994,377
0.995,395
0.996,387
0.997,404
0.998,400
0.999,403
1.0,403
1.001,391
1.002,377
1.003,375
1.004,363
1.005,355
1.006,353
1.007,355
1.008,360
1.009,347
1.01,350
1.011,337
1.012,326
1.013,326
1.014,319
1.015,314
1.016,314
1.017,306
1.018,320
1.019,325
1.02,320
1.021,311
1.022,308
1.023,300
1.024,305
1.025,296
1.026,285
1.027,332
1.028,359
1.029,364
1.03,366
1.031,363
1.032,375
1.033,375
1.034,369
1.035,407
1.036,431
1.037,431
1.038,430
1.039,427
1.04,426
1.041,418
1.042,416
1.043,422
1.044,415
1.045,405
1.046,411
1.047,405
1.048,409
1.049,402
1.05,386
1.051,381
1.052,406
1.053,402
1.054,395
1.055,383
1.056,380
1.057,378
1.058,364
1.059,361
1.06,356
1.061,360
1.062,353
1.063,347
1.064,346
1.065,348
1.066,334
1.067,352
1.068,345
1.069,338
1.07,377
1.071,378
1.072,385
1.073,391
1.074,380
1.075,414
1.076,410
1.077,407
1.078,400
1.079,389
1.08,382
1.081,385
1.082,371
1.083,362
1.084,361
1.085,354
1.086,345
1.087,339
1.088,331
1.089,334
1.09,325
1.091,320
1.092,321
1.093,332
1.094,325
1.095,336
1.096,340
1.097,348
1.098,343
1.099,334
1.1,350
1.101,342
1.102,333
1.103,322
1.104,319
1.105,319
1.106,313
1.107,305
1.108,317
1.109,323
1.11,317
1.111,313
1.112,315
1.113,315
1.114,310
1.115,298
1.116,288
1.117,316
1.118,310
1.119,300
1.12,296
1.121,300
1.122,296
1.123,293
1.124,287
1.125,284
1.126,276
1.127,268
1.128,260
1.129,261
1.13,263
1.131,254
1.132,256
1.133,262
1.134,264
1.135,281
1.136,278
1.137,280
1.138,286
1.139,277
1.14,284
1.141,299
1.142,298
1.143,293
1.144,287
1.145,281
1.146,285
1.147,275
1.148,267
1.149,308
1.15,302
1.151,301
1.152,314
1.153,321
1.154,328
1.155,323
1.156,311
1.157,317
1.158,307
1.159,298
1.16,291
1.161,282
1.162,283
1.163,278
1.164,269
1.165,275
1.166,270
1.167,259
1.168,269
1.169,264
1.17,267
1.171,269
1.172,259
1.173,261
1.174,303
1.175,314
1.176,319
1.177,320
1.178,327
1.179,330
1.18,319
1.181,334
1.182,333
1.183,384
1.184,411
1.185,416
1.186,429
1.187,440
1.188,433
1.189,457
1.19,463
1.191,459
1.192,449
1.193,441
1.194,439
1.195,442
1.196,433
1.197,444
1.198,435
1.199,422
1.2,413
1.201,400
1.202,391
1.203,386
1.204,372
1.205,361
1.206,348
1.207,389
1.208,382
1.209,374
1.21,367
1.211,363
1.212,354
1.213,343
1.214,338
1.215,335
1.216,330
1.217,328
1.218,324
1.219,327
1.22,320
1.221,314
1.222,391
1.223,390
1.224,385
1.225,385
1.226,377
1.227,377
1.228,369
1.229,355
1.23,388
1.231,302
1.232,301
1.233,303
1.234,291
1.235,310
1.236,308
1.237,301
1.238,294
1.239,306
1.24,321
1.241,328
1.242,326
1.243,313
1.244,2
1.245,301
1.246,303
1.247,291
1.248,310
1.249,308
1.25,301
1.251,294
1.252,306
1.253,321
1.254,328
1.255,326
1.256,313
1.257,347
1.258,339
1.259,335
1.26,330
1.261,325
1.262,325
1.263,320
1.264,311
1.265,310
1.266,318
1.267,318
1.268,312
1.269,306
1.27,304
1.271,303
1.272,291
1.273,314
1.274,351
1.275,350
1.276,341
1.277,331
1.278,336
1.279,335
1.28,324
1.281,348
1.282,340
1.283,334
1.284,328
1.285,325
1.286,323
1.287,325
1.288,319
1.289,341
1.29,355
1.291,351
1.292,356
1.293,358
1.294,354
1.295,362
1.296,352
1.297,347
1.298,347
1.299,348
1.3,345
1.301,338
1.302,336
1.303,339
1.304,333
1.305,333
1.306,328
1.307,335
1.308,326
1.309,319
1.31,311
1.311,314
1.312,309
1.313,302
1.314,315
1.315,329
1.316,324
1.317,323
1.318,316
1.319,312
1.32,306
1.321,296
1.322,313
1.323,305
1.324,310
1.325,302
1.326,298
1.327,304
1.328,305
1.329,333
1.33,324
1.331,323
1.332,315
1.333,306
1.334,308
1.335,311
1.336,314
1.337,302
1.338,323
1.339,322
1.34,323
1.341,335
1.342,337
1.343,347
1.344,348
1.345,338
1.346,333
1.347,329
1.348,325
1.349,320
1.35,309
1.351,309
1.352,309
1.353,301
1.354,292
1.355,303
1.356,293
1.357,286
1.358,279
1.359,274
1.36,277
1.361,268
1.362,282
1.363,304
1.364,303
1.365,300
1.366,301
1.367,300
1.368,304
1.369,301
1.37,301
1.371,306
1.372,301
1.373,296
1.374,292
1.375,290
1.376,294
1.377,290
1.378,280
1.379,301
1.38,315
1.381,310
1.382,314
1.383,315
1.384,315
1.385,317
1.386,307
1.387,306
1.388,313
1.389,314
1.39,313
1.391,314
1.392,316
1.393,311
1.394,302
1.395,306
1.396,301
1.397,290
1.398,283
1.399,276
1.4,271
1.401,274
1.402,266
1.403,285
1.404,286
1.405,281
1.406,272
1.407,270
1.408,270
1.409,271
1.41,275
1.411,278
1.412,270
1.413,261
1.414,252
1.415,245
1.416,238
1.417,244
1.418,241
1.419,233
1.42,233
1.421,232
1.422,227
1.423,220
1.424,218
1.425,224
1.426,222
1.427,223
1.428,242
1.429,258
1.43,255
1.431,271
1.432,277
1.433,290
1.434,291
1.435,280
1.436,322
1.437,360
1.438,366
1.439,379
1.44,387
1.441,396
1.442,395
1.443,381
1.444,370
1.445,364
1.446,368
1.447,359
1.448,356
1.449,358
1.45,357
1.451,343
1.452,372
1.453,389
1.454,384
1.455,383
1.456,375
1.457,378
1.458,374
1.459,359
1.46,372
1.461,391
1.462,386
1.463,387
1.464,380
1.465,369
1.466,370
1.467,355
1.468,342
1.469,353
1.47,360
1.471,357
1.472,353
1.473,345
1.474,346
1.475,336
1.476,325
1.477,318
1.478,345
1.479,363
1.48,363
1.481,365
1.482,369
1.483,357
1.484,351
1.485,353
1.486,342
1.487,338
1.488,327
1.489,324
1.49,326
1.491,318
1.492,337
1.493,369
1.494,366
1.495,359
1.496,350
1.497,346
1.498,344
1.499,340
1.5,327
1.501,367
1.502,362
1.503,352
1.504,342
1.505,332
1.506,329
1.507,326
1.508,316
1.509,336
1.51,344
1.511,338
1.512,332
1.513,329
1.514,325
1.515,322
1.516,325
1.517,332
1.518,348
1.519,346
1.52,351
1.521,351
1.522,363
1.523,371
1.524,361
1.525,354
1.526,351
1.527,340
1.528,333
1.529,346
1.53,349
1.531,353
1.532,351
1.533,379
1.534,378
1.535,378
1.536,377
1.537,367
1.538,365
1.539,367
1.54,355
1.541,345
1.542,348
1.543,337
1.544,323
1.545,320
1.546,315
1.547,317
1.548,310
1.549,298
1.55,297
1.551,302
1.552,296
1.553,287
1.554,281
1.555,283
1.556,277
1.557,267
1.558,260
1.559,253
1.56,244
1.561,234
1.562,253
1.563,257
1.564,259
1.565,251
1.566,251
1.567,271
1.568,266
1.569,297
1.57,304
1.571,302
1.572,306
1.573,298
1.574,328
1.575,348
1.576,352
1.577,353
1.578,351
1.579,350
1.58,353
1.581,342
1.582,330
1.583,337
1.584,328
1.585,319
1.586,310
1.587,305
1.588,305
1.589,301
1.59,347
1.591,349
1.592,347
1.593,339
1.594,338
1.595,341
1.596,346
1.597,336
1.598,330
1.599,317
1.6,307
1.601,301
1.602,295
1.603,293
1.604,290
1.605,285
1.606,277
1.607,326
1.608,327
1.609,323
1.61,315
1.611,319
1.612,324
1.613,315
1.614,304
1.615,319
1.616,339
1.617,336
1.618,348
1.619,344
1.62,356
1.621,357
1.622,347
1.623,344
1.624,347
1.625,343
1.626,335
1.627,327
1.628,328
1.629,323
1.63,314
1.631,343
1.632,339
1.633,336
1.634,333
1.635,321
1.636,322
1.637,318
1.638,305
1.639,308
1.64,304
1.641,314
1.642,310
1.643,307
1.644,299
1.645,302
1.646,295
1.647,293
1.648,306
1.649,297
1.65,290
1.651,285
1.652,278
1.653,276
1.654,267
1.655,287
1.656,293
1.657,284
1.658,280
1.659,276
1.66,274
1.661,277
1.662,269
1.663,272
1.664,315
1.665,324
1.666,321
1.667,328
1.668,329
1.669,336
1.67,334
1.671,321
1.672,311
1.673,298
1.674,287
1.675,279
1.676,270
1.677,267
1.678,263
1.679,255
1.68,266
1.681,287
1.682,299
1.683,301
1.684,302
1.685,305
1.686,305
1.687,293
1.688,289
1.689,284
1.69,273
1.691,275
1.692,268
1.693,273
1.694,270
1.695,263
1.696,271
1.697,272
1.698,279
1.699,280
1.7,272
1.701,278
1.702,279
1.703,269
1.704,276
1.705,266
1.706,256
1.707,253
1.708,244
1.709,247
1.71,250
1.711,240
1.712,240
1.713,277
1.714,277
1.715,275
1.716,271
1.717,267
1.718,270
1.719,263
1.72,259
1.721,287
1.722,281
1.723,274
1.724,284
1.725,290
1.726,296
1.727,293
1.728,305
1.729,309
1.73,315
1.731,334
1.732,333
1.733,334
1.734,339
1.735,338
1.736,329
1.737,342
1.738,349
1.739,339
1.74,335
1.741,336
1.742,338
1.743,332
1.744,327
1.745,323
1.746,323
1.747,323
1.748,320
1.749,313
1.75,319
1.751,316
1.752,306
1.753,326
1.754,328
1.755,330
1.756,323
1.757,315
1.758,321
1.759,325
1.76,312
1.761,310
1.762,320
1.763,326
1.764,323
1.765,319
1.766,320
1.767,322
1.768,311
1.769,302
1.77,327
1.771,317
1.772,314
1.773,305
1.774,305
1.775,307
1.776,297
1.777,295
1.778,291
1.779,280
1.78,272
1.781,262
1.782,259
1.783,264
1.784,256
1.785,253
1.786,287
1.787,285
1.788,290
1.789,284
1.79,285
1.791,292
1.792,287
1.793,276
1.794,302
1.795,341
1.796,343
1.797,345
1.798,350
1.799,338
1.8,332
1.801,333
1.802,323
1.803,327
1.804,356
1.805,359
1.806,354
1.807,355
1.808,357
1.809,344
1.81,340
1.811,337
1.812,364
1.813,355
1.814,351
1.815,358
1.816,361
1.817,347
1.818,339
1.819,325
1.82,314
1.821,315
1.822,305
1.823,301
1.824,305
1.825,294
1.826,310
1.827,319
1.828,331
1.829,331
1.83,325
1.831,327
1.832,333
1.833,330
1.834,318
1.835,306
1.836,295
1.837,285
1.838,278
1.839,269
1.84,270
1.841,262
1.842,266
1.843,322
1.844,321
1.845,318
1.846,311
1.847,311
1.848,315
1.849,306
1.85,307
1.851,312
1.852,310
1.853,308
1.854,304
1.855,297
1.856,299
1.857,295
1.858,286
1.859,290
1.86,306
1.861,299
1.862,298
1.863,304
1.864,311
1.865,312
1.866,301
1.867,310
1.868,310
1.869,302
1.87,295
1.871,285
1.872,289
1.873,286
1.874,284
1.875,281
1.876,281
1.877,276
1.878,268
1.879,265
1.88,260
1.881,263
1.882,254
1.883,261
1.884,270
1.885,262
1.886,258
1.887,252
1.888,247
1.889,249
1.89,244
1.891,241
1.892,255
1.893,250
1.894,243
1.895,238
1.896,235
1.897,240
1.898,235
1.899,233
1.9,297
1.901,297
1.902,294
1.903,291
1.904,286
1.905,289
1.906,285
1.907,274
1.908,279
1.909,270
1.91,261
1.911,256
1.912,251
1.913,255
1.914,252
1.915,262
1.916,257
1.917,249
1.918,242
1.919,238
1.92,233
1.921,233
1.922,233
1.923,234
1.924,258
1.925,254
1.926,251
1.927,245
1.928,238
1.929,240
1.93,242
1.931,234
1.932,231
1.933,223
1.934,220
1.935,221
1.936,213
1.937,207
1.938,212
1.939,206
1.94,206
1.941,225
1.942,242
1.943,257
1.944,259
1.945,264
1.946,272
1.947,266
1.948,265
1.949,272
1.95,266
1.951,262
1.952,253
1.953,252
1.954,257
1.955,251
1.956,247
1.957,256
1.958,249
1.959,243
1.96,236
1.961,233
1.962,236
1.963,241
1.964,236
1.965,271
1.966,287
1.967,293
1.968,294
1.969,303
1.97,314
1.971,312
1.972,308
1.973,326
1.974,325
1.975,324
1.976,325
1.977,323
1.978,322
1.979,320
1.98,307
1.981,325
1.982,339
1.983,333
1.984,359
1.985,362
1.986,368
1.987,368
1.988,354
1.989,363
1.99,396
1.991,397
1.992,395
1.993,390
1.994,378
1.995,380
1.996,376
1.997,388
1.998,385
1.999,382
2.0,384
2.001,385
2.002,392
2.003,394
2.004,378
2.005,394
2.006,382
2.007,373
2.008,368
2.009,358
2.01,348
2.011,350
2.012,336
2.013,330
2.014,325
2.015,312
2.016,304
2.017,310
2.018,310
2.019,312
2.02,307
2.021,297
2.022,335
2.023,334
2.024,332
2.025,325
2.026,318
2.027,320
2.028,318
2.029,305
2.03,309
2.031,298
2.032,288
2.033,276
2.034,266
2.035,269
2.036,265
2.037,265
2.038,298
2.039,292
2.04,331
2.041,332
2.042,337
2.043,342
2.044,352
2.045,344
2.046,365
2.047,365
2.048,358
2.049,353
2.05,352
2.051,355
2.052,351
2.053,357
2.054,357
2.055,369
2.056,382
2.057,378
2.058,379
2.059,380
2.06,383
2.061,377
2.062,379
2.063,418
2.064,429
2.065,429
2.066,422
2.067,422
2.068,427
2.069,419
2.07,411
2.071,412
2.072,403
2.073,458
2.074,459
2.075,471
2.076,477
2.077,468
2.078,463
2.079,479
2.08,468
2.081,460
2.082,451
2.083,442
2.084,441
2.085,427
2.086,411
2.087,414
2.088,404
2.089,397
2.09,386
2.091,375
2.092,374
2.093,366
2.094,352
2.095,358
2.096,344
2.097,344
2.098,333
2.099,328
2.1,328
2.101,326
2.102,315
2.103,323
2.104,332
2.105,338
2.106,335
2.107,331
2.108,338
2.109,337
2.11,323
2.111,319
2.112,332
2.113,325
2.114,316
2.115,304
2.116,299
2.117,299
2.118,299
2.119,315
2.12,358
2.121,361
2.122,370
2.123,371
2.124,380
2.125,384
2.126,372
2.127,360
2.128,366
2.129,359
2.13,349
2.131,340
2.132,335
2.133,333
2.134,324
2.135,348
2.136,351
2.137,344
2.138,342
2.139,337
2.14,327
2.141,328
2.142,319
2.143,317
2.144,307
2.145,303
2.146,293
2.147,287
2.148,278
2.149,280
2.15,274
2.151,267
2.152,289
2.153,293
2.154,294
2.155,287
2.156,282
2.157,286
2.158,285
2.159,276
2.16,270
2.161,264
2.162,254
2.163,246
2.164,240
2.165,243
2.166,239
2.167,234
2.168,260
2.169,251
2.17,244
2.171,237
2.172,234
2.173,234
2.174,232
2.175,225
2.176,239
2.177,263
2.178,257
2.179,251
2.18,249
2.181,248
2.182,252
2.183,243
2.184,235
2.185,243
2.186,238
2.187,232
2.188,225
2.189,223
2.19,227
2.191,222
2.192,223
2.193,267
2.194,270
2.195,268
2.196,267
2.197,265
2.198,271
2.199,263
2.2,260
2.201,303
2.202,318
2.203,321
2.204,328
2.205,329
2.206,338
2.207,335
2.208,326
2.209,372
2.21,366
2.211,363
2.212,360
2.213,358
2.214,361
2.215,352
2.216,339
2.217,340
2.218,339
2.219,329
2.22,317
2.221,309
2.222,310
2.223,305
2.224,294
2.225,301
2.226,325
2.227,320
2.228,318
2.229,310
2.23,305
2.231,306
2.232,294
2.233,293
2.234,286
2.235,303
2.236,298
2.237,294
2.238,297
2.239,298
2.24,290
2.241,281
2.242,291
2.243,292
2.244,286
2.245,276
2.246,272
2.247,277
2.248,272
2.249,269
2.25,291
2.251,283
2.252,282
2.253,278
2.254,271
2.255,277
2.256,270
2.257,270
2.258,289
2.259,295
2.26,312
2.261,310
2.262,308
2.263,309
2.264,304
2.265,293
2.266,302
2.267,295
2.268,288
2.269,280
2.27,272
2.271,272
2.272,267
2.273,259
2.274,265
2.275,308
2.276,307
2.277,302
2.278,305
2.279,302
2.28,299
2.281,287
2.282,347
2.283,357
2.284,358
2.285,355
2.286,351
2.287,355
2.288,352
2.289,348
2.29,344
2.291,336
2.292,348
2.293,348
2.294,340
2.295,342
2.296,342
2.297,328
2.298,362
2.299,370
2.3,368
2.301,362
2.302,355
2.303,349
2.304,350
2.305,340
2.306,346
2.307,391
2.308,392
2.309,412
2.31,407
2.311,414
2.312,425
2.313,420
2.314,420
2.315,429
2.316,418
2.317,423
2.318,422
2.319,423
2.32,428
2.321,416
2.322,446
2.323,478
2.324,479
2.325,482
2.326,479
2.327,470
2.328,467
2.329,457
2.33,439
2.331,441
2.332,432
2.333,420
2.334,411
2.335,401
2.336,400
2.337,393
2.338,380
2.339,380
2.34,379
2.341,369
2.342,358
2.343,349
2.344,348
2.345,342
2.346,330
2.347,341
2.348,368
2.349,364
2.35,359
2.351,356
2.352,357
2.353,356
2.354,343
2.355,346
2.356,340
2.357,328
2.358,323
2.359,315
2.36,313
2.361,313
2.362,307
2.363,313
2.364,314
2.365,320
2.366,320
2.367,318
2.368,315
2.369,319
2.37,309
2.371,309
2.372,318
2.373,308
2.374,302
2.375,311
2.376,311
2.377,314
2.378,301
2.379,293
2.38,335
2.381,364
2.382,363
2.383,360
2.384,359
2.385,357
2.386,348
2.387,335
2.388,322
2.389,318
2.39,326
2.391,320
2.392,316
2.393,319
2.394,316
2.395,310
2.396,330
2.397,328
2.398,327
2.399,341
2.4,343
2.401,349
2.402,349
2.403,336
2.404,345
2.405,363
2.406,358
2.407,353
2.408,351
2.409,352
2.41,350
2.411,345
2.412,331
2.413,333
2.414,327
2.415,318
2.416,315
2.417,312
2.418,315
2.419,302
2.42,303
2.421,323
2.422,313
2.423,308
2.424,309
2.425,303
2.426,305
2.427,298
2.428,292
2.429,288
2.43,281
2.431,296
2.432,294
2.433,297
2.434,303
2.435,296
2.436,288
2.437,306
2.438,318
2.439,318
2.44,315
2.441,313
2.442,318
2.443,309
2.444,298
2.445,305
2.446,299
2.447,295
2.448,290
2.449,286
2.45,291
2.451,288
2.452,278
2.453,321
2.454,355
2.455,362
2.456,358
2.457,378
2.458,390
2.459,396
2.46,388
2.461,395
2.462,393
2.463,384
2.464,373
2.465,377
2.466,381
2.467,378
2.468,364
2.469,351
2.47,339
2.471,347
2.472,337
2.473,327
2.474,326
2.475,322
2.476,308
2.477,314
2.478,322
2.479,321
2.48,319
2.481,313
2.482,307
2.483,311
2.484,305
2.485,293
2.486,284
2.487,273
2.488,263
2.489,256
2.49,250
2.491,251
2.492,262
2.493,272
2.494,303
2.495,306
2.496,301
2.497,302
2.498,302
2.499,306
2.5,301
2.501,290
2.502,292
2.503,280
2.504,272
2.505,262
2.506,255
2.507,253
2.508,249
2.509,240
2.51,294
2.511,312
2.512,311
2.513,318
2.514,328
2.515,333
2.516,333
2.517,320
2.518,358
2.519,362
2.52,362
2.521,354
2.522,350
2.523,353
2.524,352
2.525,338
2.526,350
2.527,349
2.528,343
2.529,336
2.53,335
2.531,332
2.532,333
2.533,321
2.534,362
2.535,353
2.536,348
2.537,340
2.538,329
2.539,331
2.54,339
2.541,328
2.542,332
2.543,326
2.544,319
2.545,313
2.546,309
2.547,302
2.548,302
2.549,292
2.55,284
2.551,316
2.552,307
2.553,299
2.554,291
2.555,282
2.556,285
2.557,277
2.558,271
2.559,285
2.56,306
2.561,325
2.562,325
2.563,321
2.564,326
2.565,324
2.566,326
2.567,391
2.568,401
2.569,403
2.57,400
2.571,397
2.572,404
2.573,397
2.574,388
2.575,384
2.576,374
2.577,367
2.578,358
2.579,349
2.58,346
2.581,337
2.582,327
2.583,318
2.584,308
2.585,299
2.586,288
2.587,278
2.588,280
2.589,275
2.59,278
2.591,288
2.592,285
2.593,279
2.594,280
2.595,279
2.596,280
2.597,283
2.598,273
2.599,284
2.6,315
2.601,311
2.602,307
2.603,303
2.604,301
2.605,304
2.606,295
2.607,298
2.608,346
2.609,348
2.61,347
2.611,342
2.612,343
2.613,344
2.614,333
2.615,322
2.616,317
2.617,305
2.618,303
2.619,309
2.62,310
2.621,309
2.622,303
2.623,294
2.624,336
2.625,351
2.626,351
2.627,351
2.628,352
2.629,354
2.63,348
2.631,335
2.632,332
2.633,335
2.634,332
2.635,326
2.636,319
2.637,321
2.638,317
2.639,325
2.64,347
2.641,376
2.642,371
2.643,373
2.644,370
2.645,361
2.646,359
2.647,346
2.648,365
2.649,388
2.65,393
2.651,390
2.652,387
2.653,389
2.654,388
2.655,371
2.656,393
2.657,415
2.658,416
2.659,414
2.66,412
2.661,406
2.662,407
2.663,390
2.664,382
2.665,383
2.666,381
2.667,387
2.668,384
2.669,384
2.67,386
2.671,375
2.672,363
2.673,356
2.674,349
2.675,337
2.676,325
2.677,313
2.678,309
2.679,300
2.68,292
2.681,287
2.682,280
2.683,281
2.684,275
2.685,284
2.686,291
2.687,288
2.688,286
2.689,290
2.69,335
2.691,360
2.692,401
2.693,416
2.694,428
2.695,429
2.696,417
2.697,409
2.698,416
2.699,407
2.7,402
2.701,404
2.702,406
2.703,404
2.704,391
2.705,403
2.706,442
2.707,440
2.708,439
2.709,431
2.71,427
2.711,427
2.712,413
2.713,412
2.714,400
2.715,397
2.716,391
2.717,386
2.718,381
2.719,381
2.72,367
2.721,360
2.722,384
2.723,419
2.724,416
2.725,414
2.726,409
2.727,410
2.728,397
2.729,384
2.73,379
2.731,366
2.732,374
2.733,362
2.734,356
2.735,358
2.736,347
2.737,336
2.738,366
2.739,389
2.74,388
2.741,388
2.742,379
2.743,381
2.744,371
2.745,361
2.746,373
2.747,361
2.748,353
2.749,346
2.75,340
2.751,342
2.752,336
2.753,325
2.754,328
2.755,333
2.756,326
2.757,320
2.758,310
2.759,311
2.76,306
2.761,295
2.762,309
2.763,336
2.764,335
2.765,331
2.766,328
2.767,325
2.768,325
2.769,314
2.77,313
2.771,340
2.772,335
2.773,333
2.774,329
2.775,324
2.776,324
2.777,319
2.778,318
2.779,322
2.78,316
2.781,305
2.782,301
2.783,299
2.784,303
2.785,294
2.786,291
2.787,310
2.788,313
2.789,311
2.79,308
2.791,309
2.792,316
2.793,315
2.794,315
2.795,333
2.796,334
2.797,335
2.798,334
2.799,324
2.8,330
2.801,322
2.802,324
2.803,375
2.804,376
2.805,375
2.806,369
2.807,367
2.808,368
2.809,360
2.81,347
2.811,344
2.812,332
2.813,323
2.814,367
2.815,367
2.816,373
2.817,376
2.818,364
2.819,377
2.82,364
2.821,363
2.822,367
2.823,366
2.824,367
2.825,367
2.826,363
2.827,371
2.828,380
2.829,377
2.83,371
2.831,364
2.832,362
2.833,360
2.834,345
2.835,349
2.836,370
2.837,363
2.838,360
2.839,352
2.84,354
2.841,357
2.842,345
2.843,344
2.844,369
2.845,361
2.846,371
2.847,375
2.848,412
2.849,423
2.85,415
2.851,404
2.852,443
2.853,455
2.854,455
2.855,452
2.856,463
2.857,472
2.858,464
2.859,482
2.86,474
2.861,472
2.862,477
2.863,478
2.864,473
2.865,471
2.866,463
2.867,445
2.868,443
2.869,431
2.87,418
2.871,410
2.872,403
2.873,403
2.874,394
2.875,378
2.876,375
2.877,374
2.878,366
2.879,355
2.88,347
2.881,347
2.882,347
2.883,334
2.884,338
2.885,356
2.886,356
2.887,350
2.888,348
2.889,345
2.89,348
2.891,334
2.892,328
2.893,324
2.894,312
2.895,304
2.896,294
2.897,287
2.898,289
2.899,279
2.9,270
2.901,276
2.902,294
2.903,287
2.904,282
2.905,287
2.906,290
2.907,280
2.908,273
2.909,330
2.91,328
2.911,348
2.912,353
2.913,352
2.914,357
2.915,352
2.916,337
2.917,336
2.918,326
2.919,321
2.92,314
2.921,308
2.922,310
2.923,301
2.924,291
2.925,294
2.926,302
2.927,295
2.928,288
2.929,280
2.93,281
2.931,283
2.932,274
2.933,271
2.934,282
2.935,300
2.936,297
2.937,295
2.938,299
2.939,295
2.94,286
2.941,293
2.942,319
2.943,317
2.944,315
2.945,308
2.946,310
2.947,308
2.948,296
2.949,304
2.95,298
2.951,302
2.952,292
2.953,290
2.954,291
2.955,293
2.956,285
2.957,273
2.958,263
2.959,256
2.96,247
2.961,243
2.962,237
2.963,236
2.964,228
2.965,224
2.966,233
2.967,253
2.968,251
2.969,248
2.97,251
2.971,257
2.972,257
2.973,271
2.974,300
2.975,299
2.976,298
2.977,296
2.978,294
2.979,299
2.98,292
2.981,284
2.982,310
2.983,308
2.984,304
2.985,300
2.986,293
2.987,294
2.988,290
2.989,281
2.99,300
2.991,291
2.992,283
2.993,274
2.994,266
2.995,270
2.996,267
2.997,261
2.998,275
2.999,313
3.0,339
3.001,343
3.002,344
3.003,348
3.004,348
3.005,353
3.006,362
3.007,370
3.008,395
3.009,401
3.01,397
3.011,402
3.012,403
3.013,390
3.014,377
3.015,372
3.016,382
3.017,374
3.018,362
3.019,355
3.02,358
3.021,349
3.022,355
3.023,349
3.024,370
3.025,368
3.026,368
3.027,364
3.028,364
3.029,361
3.03,363
3.031,352
3.032,339
3.033,328
3.034,317
3.035,317
3.036,321
3.037,311
3.038,299
3.039,326
3.04,320
3.041,315
3.042,304
3.043,300
3.044,302
3.045,294
3.046,283
3.047,310
3.048,317
3.049,313
3.05,319
3.051,319
3.052,326
3.053,323
3.054,310
3.055,326
3.056,348
3.057,356
3.058,363
3.059,358
3.06,357
3.061,357
3.062,343
3.063,329
3.064,318
3.065,317
3.066,308
3.067,298
3.068,294
3.069,289
3.07,280
3.071,309
3.072,340
3.073,342
3.074,339
3.075,332
3.076,327
3.077,331
3.078,320
3.079,356
3.08,366
3.081,359
3.082,399
3.083,407
3.084,419
3.085,427
3.086,419
3.087,402
3.088,386
3.089,371
3.09,356
3.091,343
3.092,335
3.093,335
3.094,323
3.095,329
3.096,355
3.097,365
3.098,363
3.099,358
3.1,350
3.101,352
3.102,342
3.103,329
3.104,339
3.105,340
3.106,390
3.107,389
3.108,380
3.109,386
3.11,384
3.111,390
3.112,415
3.113,441
3.114,442
3.115,437
3.116,430
3.117,430
3.118,424
3.119,405
3.12,402
3.121,441
3.122,454
3.123,453
3.124,454
3.125,459
3.126,457
3.127,438
3.128,454
3.129,449
3.13,438
3.131,442
3.132,437
3.133,436
3.134,434
3.135,416
3.136,402
3.137,387
3.138,377
3.139,365
3.14,352
3.141,343
3.142,341
3.143,328
3.144,317
3.145,332
3.146,325
3.147,317
3.148,310
3.149,298
3.15,301
3.151,293
3.152,285
3.153,301
3.154,291
3.155,283
3.156,277
3.157,272
3.158,267
3.159,261
3.16,252
3.161,265
3.162,268
3.163,264
3.164,258
3.165,257
3.166,257
3.167,254
3.168,250
3.169,251
3.17,246
3.171,237
3.172,229
3.173,221
3.174,224
3.175,222
3.176,217
3.177,221
3.178,238
3.179,231
3.18,223
3.181,223
3.182,225
3.183,226
3.184,223
3.185,221
3.186,241
3.187,238
3.188,234
3.189,228
3.19,232
3.191,235
3.192,226
3.193,220
3.194,219
3.195,211
3.196,215
3.197,210
3.198,210
3.199,214
3.2,208
3.201,202
3.202,232
3.203,253
3.204,257
3.205,253
3.206,259
3.207,265
3.208,257
3.209,261
3.21,294
3.211,304
3.212,306
3.213,308
3.214,309
3.215,316
3.216,311
3.217,312
3.218,323
3.219,314
3.22,315
3.221,312
3.222,310
3.223,322
3.224,322
3.225,315
3.226,371
3.227,371
3.228,367
3.229,363
3.23,356
3.231,357
3.232,365
3.233,355
3.234,359
3.235,372
3.236,365
3.237,360
3.238,351
3.239,359
3.24,362
3.241,359
3.242,347
3.243,334
3.244,329
3.245,325
3.246,317
3.247,312
3.248,313
3.249,300
3.25,304
3.251,305
3.252,295
3.253,290
3.254,284
3.255,283
3.256,286
3.257,278
3.258,297
3.259,291
3.26,282
3.261,273
3.262,267
3.263,264
3.264,267
3.265,268
3.266,260
3.267,295
3.268,288
3.269,286
3.27,280
3.271,275
3.272,282
3.273,275
3.274,269
3.275,260
3.276,251
3.277,274
3.278,268
3.279,270
3.28,275
3.281,271
3.282,279
3.283,284
3.284,295
3.285,294
3.286,291
3.287,286
3.288,290
3.289,287
3.29,283
3.291,282
3.292,284
3.293,277
3.294,273
3.295,264
3.296,260
3.297,259
3.298,249
3.299,257
3.3,253
3.301,249
3.302,244
3.303,240
3.304,239
3.305,239
3.306,231
3.307,237
3.308,246
3.309,237
3.31,233
3.311,230
3.312,227
3.313,230
3.314,222
3.315,218
3.316,235
3.317,228
3.318,223
3.319,220
3.32,215
3.321,220
3.322,214
3.323,217
3.324,233
3.325,258
3.326,257
3.327,266
3.328,275
3.329,290
3.33,290
3.331,281
3.332,278
3.333,287
3.334,290
3.335,288
3.336,282
3.337,289
3.338,285
3.339,292
3.34,302
3.341,296
3.342,288
3.343,280
3.344,275
3.345,278
3.346,272
3.347,268
3.348,284
3.349,286
3.35,280
3.351,276
3.352,269
3.353,268
3.354,268
3.355,258
3.356,252
3.357,254
3.358,281
3.359,280
3.36,275
3.361,282
3.362,286
3.363,277
3.364,300
3.365,308
3.366,304
3.367,299
3.368,290
3.369,284
3.37,288
3.371,278
3.372,277
3.373,286
3.374,282
3.375,272
3.376,265
3.377,261
3.378,266
3.379,270
3.38,280
3.381,321
3.382,324
3.383,320
3.384,313
3.385,307
3.386,312
3.387,302
3.388,296
3.389,293
3.39,292
3.391,299
3.392,296
3.393,296
3.394,300
3.395,291
3.396,279
3.397,294
3.398,285
3.399,276
3.4,278
3.401,272
3.402,280
3.403,278
3.404,282
3.405,291
3.406,293
3.407,292
3.408,287
3.409,284
3.41,281
3.411,278
3.412,274
3.413,271
3.414,262
3.415,270
3.416,261
3.417,255
3.418,256
3.419,260
3.42,251
3.421,262
3.422,255
3.423,249
3.424,240
3.425,237
3.426,234
3.427,232
3.428,228
3.429,271
3.43,264
3.431,286
3.432,289
3.433,301
3.434,311
3.435,321
3.436,315
3.437,305
3.438,309
3.439,301
3.44,293
3.441,298
3.442,295
3.443,303
3.444,296
3.445,300
3.446,319
3.447,316
3.448,308
3.449,306
3.45,298
3.451,304
3.452,297
3.453,285
3.454,303
3.455,309
3.456,308
3.457,303
3.458,298
3.459,301
3.46,293
3.461,282
3.462,275
3.463,269
3.464,268
3.465,261
3.466,254
3.467,255
3.468,253
3.469,245
3.47,242
3.471,278
3.472,272
3.473,271
3.474,264
3.475,271
3.476,269
3.477,271
3.478,298
3.479,296
3.48,300
3.481,300
3.482,299
3.483,300
3.484,302
3.485,290
3.486,287
3.487,296
3.488,330
3.489,333
3.49,330
3.491,332
3.492,336
3.493,326
3.494,321
3.495,316
3.496,347
3.497,357
3.498,360
3.499,358
3.5,363
3.501,354
3.502,340
3.503,338
3.504,327
3.505,336
3.506,336
3.507,339
3.508,343
3.509,330
3.51,327
3.511,318
3.512,315
3.513,308
3.514,301
3.515,295
3.516,297
3.517,290
3.518,281
3.519,273
3.52,285
3.521,279
3.522,274
3.523,268
3.524,271
3.525,266
3.526,255
3.527,251
3.528,257
3.529,249
3.53,259
3.531,261
3.532,267
3.533,269
3.534,259
3.535,255
3.536,271
3.537,266
3.538,298
3.539,329
3.54,347
3.541,361
3.542,358
3.543,364
3.544,355
3.545,373
3.546,394
3.547,391
3.548,387
3.549,391
3.55,383
3.551,389
3.552,395
3.553,394
3.554,388
3.555,381
3.556,374
3.557,377
3.558,366
3.559,373
3.56,411
3.561,418
3.562,412
3.563,408
3.564,411
3.565,420
3.566,414
3.567,398
3.568,400
3.569,389
3.57,377
3.571,366
3.572,364
3.573,364
3.574,356
3.575,343
3.576,353
3.577,348
3.578,339
3.579,329
3.58,330
3.581,334
3.582,331
3.583,319
3.584,331
3.585,352
3.586,351
3.587,352
3.588,347
3.589,344
3.59,342
3.591,337
3.592,347
3.593,366
3.594,357
3.595,355
3.596,356
3.597,361
3.598,354
3.599,353
3.6,346
3.601,346
3.602,338
3.603,336
3.604,337
3.605,334
3.606,325
3.607,316
3.608,320
3.609,334
3.61,339
3.611,335
3.612,332
3.613,332
3.614,335
3.615,322
3.616,325
3.617,352
3.618,355
3.619,372
3.62,371
3.621,369
3.622,372
3.623,362
3.624,350
3.625,348
3.626,336
3.627,328
3.628,319
3.629,315
3.63,311
3.631,304
3.632,296
3.633,290
3.634,279
3.635,270
3.636,263
3.637,262
3.638,265
3.639,262
