timestamp,emg_value
0.0,358
0.001,352
0.002,372
0.003,364
0.004,354
0.005,343
0.006,336
0.007,337
0.008,325
0.009,315
0.01,330
0.011,334
0.012,371
0.013,369
0.014,369
0.015,370
0.016,369
0.017,360
0.018,368
0.019,362
0.02,377
0.021,386
0.022,384
0.023,387
0.024,384
0.025,370
0.026,368
0.027,375
0.028,368
0.029,364
0.03,359
0.031,353
0.032,350
0.033,336
0.034,346
0.035,377
0.036,371
0.037,382
0.038,384
0.039,389
0.04,387
0.041,377
0.042,400
0.043,393
0.044,429
0.045,450
0.046,468
0.047,481
0.048,488
0.049,474
0.05,463
0.051,454
0.052,442
0.053,429
0.054,416
0.055,406
0.056,400
0.057,397
0.058,384
0.059,380
0.06,384
0.061,378
0.062,371
0.063,370
0.064,372
0.065,372
0.066,372
0.067,370
0.068,365
0.069,383
0.07,379
0.071,377
0.072,385
0.073,375
0.074,374
0.075,369
0.076,367
0.077,371
0.078,369
0.079,373
0.08,377
0.081,371
0.082,368
0.083,390
0.084,385
0.085,376
0.086,366
0.087,358
0.088,361
0.089,357
0.09,342
0.091,346
0.092,340
0.093,333
0.094,323
0.095,312
0.096,313
0.097,309
0.098,298
0.099,290
0.1,279
0.101,283
0.102,273
0.103,265
0.104,263
0.105,265
0.106,256
0.107,253
0.108,261
0.109,252
0.11,244
0.111,236
0.112,238
0.113,240
0.114,234
0.115,232
0.116,224
0.117,223
0.118,226
0.119,222
0.12,219
0.121,223
0.122,217
0.123,212
0.124,221
0.125,224
0.126,218
0.127,211
0.128,213
0.129,218
0.13,214
0.131,218
0.132,265
0.133,263
0.134,261
0.135,259
0.136,258
0.137,263
0.138,269
0.139,265
0.14,308
0.141,336
0.142,342
0.143,345
0.144,345
0.145,350
0.146,349
0.147,347
0.148,347
0.149,340
0.15,331
0.151,324
0.152,320
0.153,319
0.154,307
0.155,295
0.156,298
0.157,297
0.158,299
0.159,293
0.16,286
0.161,288
0.162,292
0.163,281
0.164,310
0.165,316
0.166,314
0.167,311
0.168,308
0.169,304
0.17,308
0.171,301
0.172,312
0.173,324
0.174,344
0.175,349
0.176,347
0.177,342
0.178,349
0.179,340
0.18,337
0.181,369
0.182,366
0.183,363
0.184,356
0.185,353
0.186,355
0.187,345
0.188,333
0.189,333
0.19,322
0.191,311
0.192,303
0.193,296
0.194,291
0.195,280
0.196,276
0.197,304
0.198,310
0.199,310
0.2,307
0.201,309
0.202,310
0.203,307
0.204,314
0.205,318
0.206,320
0.207,322
0.208,324
0.209,341
0.21,349
0.211,353
0.212,341
0.213,332
0.214,358
0.215,354
0.216,351
0.217,347
0.218,351
0.219,347
0.22,335
0.221,327
0.222,314
0.223,319
0.224,312
0.225,305
0.226,305
0.227,304
0.228,292
0.229,285
0.23,281
0.231,315
0.232,311
0.233,304
0.234,304
0.235,307
0.236,297
0.237,293
0.238,302
0.239,295
0.24,295
0.241,293
0.242,294
0.243,295
0.244,285
0.245,276
0.246,305
0.247,308
0.248,308
0.249,299
0.25,303
0.251,308
0.252,303
0.253,295
0.254,287
0.255,294
0.256,290
0.257,291
0.258,289
0.259,293
0.26,289
0.261,278
0.262,309
0.263,353
0.264,375
0.265,381
0.266,388
0.267,401
0.268,402
0.269,393
0.27,384
0.271,395
0.272,386
0.273,378
0.274,368
0.275,368
0.276,358
0.277,343
0.278,363
0.279,375
0.28,395
0.281,394
0.282,400
0.283,402
0.284,403
0.285,390
0.286,421
0.287,424
0.288,454
0.289,459
0.29,454
0.291,452
0.292,453
0.293,435
0.294,441
0.295,456
0.296,458
0.297,454
0.298,464
0.299,464
0.3,464
0.301,448
0.302,437
0.303,453
0.304,462
0.305,455
0.306,452
0.307,447
0.308,451
0.309,436
0.31,427
0.311,422
0.312,418
0.313,410
0.314,426
0.315,426
0.316,430
0.317,421
0.318,418
0.319,411
0.32,403
0.321,402
0.322,400
0.323,398
0.324,393
0.325,388
0.326,376
0.327,378
0.328,364
0.329,351
0.33,342
0.331,340
0.332,342
0.333,340
0.334,328
0.335,325
0.336,315
0.337,303
0.338,295
0.339,286
0.34,275
0.341,275
0.342,264
0.343,267
0.344,271
0.345,263
0.346,263
0.347,262
0.348,263
0.349,265
0.35,256
0.351,273
0.352,275
0.353,279
0.354,316
0.355,312
0.356,326
0.357,340
0.358,337
0.359,335
0.36,359
0.361,357
0.362,354
0.363,349
0.364,345
0.365,343
0.366,332
0.367,326
0.368,379
0.369,375
0.37,370
0.371,360
0.372,352
0.373,354
0.374,345
0.375,348
0.376,379
0.377,374
0.378,370
0.379,369
0.38,362
0.381,364
0.382,364
0.383,361
0.384,375
0.385,388
0.386,388
0.387,389
0.388,381
0.389,381
0.39,377
0.391,363
0.392,363
0.393,371
0.394,364
0.395,355
0.396,354
0.397,356
0.398,352
0.399,344
0.4,359
0.401,379
0.402,371
0.403,367
0.404,361
0.405,362
0.406,359
0.407,364
0.408,377
0.409,392
0.41,402
0.411,402
0.412,398
0.413,396
0.414,399
0.415,386
0.416,385
0.417,414
0.418,408
0.419,401
0.42,391
0.421,386
0.422,386
0.423,378
0.424,388
0.425,419
0.426,416
0.427,416
0.428,413
0.429,411
0.43,416
0.431,406
0.432,416
0.433,437
0.434,474
0.435,530
0.436,530
0.437,535
0.438,540
0.439,532
0.44,521
0.441,516
0.442,547
0.443,574
0.444,574
0.445,562
0.446,568
0.447,566
0.448,547
0.449,558
0.45,579
0.451,576
0.452,569
0.453,563
0.454,555
0.455,545
0.456,524
0.457,530
0.458,530
0.459,518
0.46,509
0.461,515
0.462,512
0.463,512
0.464,499
0.465,504
0.466,490
0.467,476
0.468,464
0.469,453
0.47,443
0.471,437
0.472,419
0.473,427
0.474,466
0.475,461
0.476,455
0.477,442
0.478,438
0.479,432
0.48,415
0.481,401
0.482,390
0.483,375
0.484,360
0.485,346
0.486,334
0.487,335
0.488,324
0.489,325
0.49,348
0.491,348
0.492,347
0.493,346
0.494,343
0.495,343
0.496,335
0.497,323
0.498,336
0.499,326
0.5,328
0.501,318
0.502,316
0.503,317
0.504,315
0.505,334
0.506,339
0.507,331
0.508,325
0.509,315
0.51,308
0.511,311
0.512,310
0.513,297
0.514,296
0.515,296
0.516,289
0.517,285
0.518,277
0.519,276
0.52,275
0.521,271
0.522,268
0.523,273
0.524,277
0.525,324
0.526,327
0.527,340
0.528,354
0.529,352
0.53,390
0.531,384
0.532,380
0.533,389
0.534,382
0.535,385
0.536,388
0.537,383
0.538,371
0.539,357
0.54,344
0.541,331
0.542,327
0.543,323
0.544,325
0.545,316
0.546,318
0.547,327
0.548,314
0.549,332
0.55,331
0.551,334
0.552,338
0.553,329
0.554,328
0.555,315
0.556,303
0.557,293
0.558,283
0.559,273
0.56,274
0.561,267
0.562,260
0.563,288
0.564,288
0.565,285
0.566,281
0.567,277
0.568,280
0.569,276
0.57,266
0.571,273
0.572,277
0.573,267
0.574,260
0.575,259
0.576,257
0.577,258
0.578,251
0.579,259
0.58,311
0.581,314
0.582,310
0.583,304
0.584,307
0.585,310
0.586,303
0.587,322
0.588,341
0.589,343
0.59,349
0.591,364
0.592,367
0.593,378
0.594,373
0.595,376
0.596,399
0.597,399
0.598,395
0.599,387
0.6,382
0.601,383
0.602,370
0.603,365
0.604,387
0.605,375
0.606,366
0.607,356
0.608,348
0.609,345
0.61,338
0.611,328
0.612,323
0.613,313
0.614,302
0.615,291
0.616,281
0.617,281
0.618,279
0.619,268
0.62,283
0.621,276
0.622,266
0.623,260
0.624,251
0.625,255
0.626,257
0.627,261
0.628,269
0.629,288
0.63,284
0.631,283
0.632,281
0.633,293
0.634,299
0.635,291
0.636,315
0.637,314
0.638,317
0.639,312
0.64,308
0.641,311
0.642,320
0.643,313
0.644,323
0.645,342
0.646,353
0.647,367
0.648,374
0.649,377
0.65,383
0.651,373
0.652,370
0.653,392
0.654,381
0.655,378
0.656,366
0.657,366
0.658,367
0.659,356
0.66,364
0.661,351
0.662,338
0.663,333
0.664,324
0.665,315
0.666,319
0.667,314
0.668,307
0.669,308
0.67,313
0.671,310
0.672,303
0.673,300
0.674,304
0.675,300
0.676,290
0.677,300
0.678,292
0.679,300
0.68,292
0.681,290
0.682,294
0.683,295
0.684,303
0.685,316
0.686,315
0.687,317
0.688,315
0.689,315
0.69,323
0.691,325
0.692,350
0.693,368
0.694,363
0.695,356
0.696,353
0.697,348
0.698,351
0.699,350
0.7,337
0.701,325
0.702,324
0.703,315
0.704,312
0.705,310
0.706,300
0.707,302
0.708,296
0.709,287
0.71,300
0.711,307
0.712,302
0.713,294
0.714,292
0.715,295
0.716,292
0.717,286
0.718,303
0.719,310
0.72,308
0.721,303
0.722,302
0.723,307
0.724,304
0.725,305
0.726,334
0.727,331
0.728,327
0.729,322
0.73,319
0.731,321
0.732,315
0.733,306
0.734,322
0.735,325
0.736,336
0.737,350
0.738,359
0.739,368
0.74,372
0.741,358
0.742,383
0.743,378
0.744,378
0.745,367
0.746,367
0.747,373
0.748,373
0.749,361
0.75,378
0.751,372
0.752,366
0.753,354
0.754,347
0.755,352
0.756,352
0.757,345
0.758,359
0.759,351
0.76,342
0.761,336
0.762,332
0.763,332
0.764,334
0.765,328
0.766,349
0.767,342
0.768,338
0.769,329
0.77,321
0.771,322
0.772,326
0.773,321
0.774,328
0.775,333
0.776,328
0.777,323
0.778,350
0.779,362
0.78,373
0.781,372
0.782,366
0.783,371
0.784,358
0.785,349
0.786,341
0.787,340
0.788,343
0.789,337
0.79,353
0.791,365
0.792,358
0.793,351
0.794,345
0.795,346
0.796,349
0.797,345
0.798,345
0.799,357
0.8,380
0.801,376
0.802,375
0.803,381
0.804,386
0.805,387
0.806,376
0.807,402
0.808,396
0.809,388
0.81,384
0.811,378
0.812,379
0.813,380
0.814,370
0.815,375
0.816,376
0.817,373
0.818,370
0.819,363
0.82,361
0.821,361
0.822,349
0.823,362
0.824,356
0.825,343
0.826,331
0.827,326
0.828,326
0.829,325
0.83,317
0.831,317
0.832,325
0.833,316
0.834,310
0.835,305
0.836,294
0.837,298
0.838,295
0.839,295
0.84,303
0.841,295
0.842,291
0.843,283
0.844,277
0.845,284
0.846,284
0.847,275
0.848,283
0.849,273
0.85,265
0.851,259
0.852,255
0.853,259
0.854,258
0.855,254
0.856,254
0.857,264
0.858,265
0.859,261
0.86,266
0.861,272
0.862,273
0.863,270
0.864,299
0.865,323
0.866,345
0.867,348
0.868,354
0.869,364
0.87,370
0.871,364
0.872,367
0.873,360
0.874,368
0.875,369
0.876,367
0.877,374
0.878,377
0.879,366
0.88,375
0.881,372
0.882,359
0.883,351
0.884,345
0.885,362
0.886,370
0.887,364
0.888,365
0.889,358
0.89,354
0.891,346
0.892,350
0.893,353
0.894,360
0.895,357
0.896,352
0.897,346
0.898,348
0.899,339
0.9,334
0.901,332
0.902,334
0.903,327
0.904,325
0.905,324
0.906,314
0.907,326
0.908,323
0.909,319
0.91,323
0.911,321
0.912,316
0.913,334
0.914,328
0.915,319
0.916,314
0.917,303
0.918,308
0.919,308
0.92,302
0.921,315
0.922,306
0.923,299
0.924,291
0.925,284
0.926,290
0.927,292
0.928,302
0.929,319
0.93,324
0.931,332
0.932,331
0.933,327
0.934,333
0.935,334
0.936,327
0.937,320
0.938,329
0.939,344
0.94,344
0.941,343
0.942,346
0.943,348
0.944,344
0.945,366
0.946,381
0.947,378
0.948,399
0.949,403
0.95,411
0.951,414
0.952,405
0.953,395
0.954,413
0.955,402
0.956,396
0.957,390
0.958,382
0.959,386
0.96,379
0.961,413
0.962,442
0.963,445
0.964,458
0.965,455
0.966,449
0.967,457
0.968,457
0.969,450
0.97,454
0.971,443
0.972,430
0.973,427
0.974,425
0.975,427
0.976,420
0.977,406
0.978,403
0.979,390
0.98,377
0.981,366
0.982,357
0.983,355
0.984,354
0.985,345
0.986,351
0.987,357
0.988,352
0.989,346
0.99,340
0.991,338
0.992,341
0.993,332
0.994,347
0.995,350
0.996,343
0.997,338
0.998,332
0.999,336
1.0,335
1.001,329
1.002,338
1.003,345
1.004,343
1.005,337
1.006,331
1.007,334
1.008,333
1.009,327
1.01,323
1.011,351
1.012,365
1.013,358
1.014,352
1.015,352
1.016,355
1.017,349
1.018,355
1.019,357
1.02,351
1.021,343
1.022,337
1.023,338
1.024,342
1.025,337
1.026,341
1.027,364
1.028,376
1.029,381
1.03,373
1.031,378
1.032,380
1.033,375
1.034,369
1.035,357
1.036,352
1.037,340
1.038,337
1.039,330
1.04,332
1.041,328
1.042,318
1.043,324
1.044,326
1.045,319
1.046,316
1.047,315
1.048,318
1.049,318
1.05,310
1.051,309
1.052,313
1.053,309
1.054,306
1.055,305
1.056,307
1.057,308
1.058,304
1.059,318
1.06,318
1.061,324
1.062,314
1.063,310
1.064,315
1.065,316
1.066,317
1.067,310
1.068,345
1.069,359
1.07,356
1.071,354
1.072,353
1.073,357
1.074,352
1.075,368
1.076,373
1.077,365
1.078,361
1.079,358
1.08,358
1.081,361
1.082,354
1.083,379
1.084,371
1.085,359
1.086,355
1.087,348
1.088,341
1.089,346
1.09,341
1.091,352
1.092,367
1.093,374
1.094,374
1.095,369
1.096,364
1.097,370
1.098,371
1.099,362
1.1,371
1.101,367
1.102,371
1.103,368
1.104,365
1.105,367
1.106,368
1.107,356
1.108,360
1.109,370
1.11,362
1.111,354
1.112,350
1.113,345
1.114,348
1.115,340
1.116,330
1.117,346
1.118,346
1.119,342
1.12,335
1.121,333
1.122,336
1.123,328
1.124,323
1.125,329
1.126,354
1.127,346
1.128,349
1.129,354
1.13,355
1.131,348
1.132,345
1.133,338
1.134,334
1.135,325
1.136,313
1.137,302
1.138,305
1.139,304
1.14,306
1.141,316
1.142,325
1.143,332
1.144,334
1.145,336
1.146,343
1.147,339
1.148,352
1.149,363
1.15,365
1.151,362
1.152,357
1.153,354
1.154,364
1.155,367
1.156,360
1.157,373
1.158,362
1.159,354
1.16,347
1.161,337
1.162,347
1.163,350
1.164,350
1.165,366
1.166,365
1.167,376
1.168,378
1.169,375
1.17,379
1.171,382
1.172,370
1.173,364
1.174,353
1.175,348
1.176,338
1.177,331
1.178,335
1.179,336
1.18,329
1.181,324
1.182,330
1.183,319
1.184,315
1.185,309
1.186,311
1.187,312
1.188,306
1.189,309
1.19,324
1.191,316
1.192,308
1.193,301
1.194,300
1.195,302
1.196,297
1.197,291
1.198,311
1.199,304
1.2,293
1.201,285
1.202,275
1.203,281
1.204,281
1.205,273
1.206,266
1.207,281
1.208,276
1.209,270
1.21,266
1.211,271
1.212,271
1.213,265
1.214,281
1.215,300
1.216,302
1.217,311
1.218,308
1.219,318
1.22,321
1.221,311
1.222,337
1.223,352
1.224,351
1.225,350
1.226,348
1.227,354
1.228,356
1.229,365
1.23,363
1.231,365
1.232,314
1.233,323
1.234,324
1.235,324
1.236,327
1.237,322
1.238,311
1.239,326
1.24,324
1.241,4
1.242,296
1.243,292
1.244,311
1.245,314
1.246,323
1.247,324
1.248,324
1.249,327
1.25,322
1.251,311
1.252,326
1.253,324
1.254,380
1.255,390
1.256,392
1.257,393
1.258,398
1.259,388
1.26,375
1.261,385
1.262,380
1.263,374
1.264,365
1.265,368
1.266,363
1.267,349
1.268,356
1.269,345
1.27,335
1.271,327
1.272,317
1.273,314
1.274,314
1.275,309
1.276,317
1.277,317
1.278,315
1.279,309
1.28,303
1.281,300
1.282,303
1.283,301
1.284,290
1.285,288
1.286,289
1.287,292
1.288,287
1.289,287
1.29,291
1.291,283
1.292,277
1.293,301
1.294,299
1.295,295
1.296,290
1.297,287
1.298,290
1.299,284
1.3,284
1.301,291
1.302,291
1.303,325
1.304,329
1.305,329
1.306,338
1.307,335
1.308,332
1.309,325
1.31,338
1.311,330
1.312,328
1.313,322
1.314,325
1.315,319
1.316,309
1.317,329
1.318,343
1.319,377
1.32,382
1.321,382
1.322,391
1.323,391
1.324,387
1.325,379
1.326,376
1.327,366
1.328,360
1.329,356
1.33,355
1.331,355
1.332,343
1.333,341
1.334,338
1.335,328
1.336,317
1.337,306
1.338,305
1.339,302
1.34,292
1.341,296
1.342,317
1.343,307
1.344,304
1.345,296
1.346,292
1.347,294
1.348,282
1.349,276
1.35,275
1.351,266
1.352,258
1.353,249
1.354,243
1.355,245
1.356,238
1.357,234
1.358,261
1.359,267
1.36,264
1.361,258
1.362,265
1.363,270
1.364,263
1.365,257
1.366,272
1.367,286
1.368,282
1.369,280
1.37,276
1.371,279
1.372,278
1.373,274
1.374,277
1.375,272
1.376,267
1.377,261
1.378,252
1.379,253
1.38,248
1.381,289
1.382,312
1.383,323
1.384,322
1.385,319
1.386,320
1.387,326
1.388,328
1.389,316
1.39,318
1.391,340
1.392,352
1.393,352
1.394,347
1.395,350
1.396,356
1.397,345
1.398,341
1.399,351
1.4,365
1.401,366
1.402,360
1.403,352
1.404,357
1.405,346
1.406,353
1.407,374
1.408,366
1.409,355
1.41,350
1.411,347
1.412,350
1.413,341
1.414,329
1.415,325
1.416,313
1.417,301
1.418,292
1.419,285
1.42,287
1.421,280
1.422,284
1.423,303
1.424,316
1.425,313
1.426,309
1.427,305
1.428,313
1.429,311
1.43,308
1.431,296
1.432,296
1.433,326
1.434,326
1.435,324
1.436,330
1.437,336
1.438,324
1.439,313
1.44,337
1.441,334
1.442,330
1.443,323
1.444,322
1.445,319
1.446,308
1.447,314
1.448,326
1.449,320
1.45,317
1.451,309
1.452,309
1.453,312
1.454,304
1.455,293
1.456,308
1.457,330
1.458,329
1.459,329
1.46,329
1.461,333
1.462,323
1.463,336
1.464,329
1.465,320
1.466,311
1.467,303
1.468,299
1.469,301
1.47,295
1.471,291
1.472,302
1.473,297
1.474,289
1.475,283
1.476,279
1.477,282
1.478,276
1.479,283
1.48,282
1.481,278
1.482,302
1.483,321
1.484,330
1.485,342
1.486,342
1.487,330
1.488,329
1.489,349
1.49,342
1.491,335
1.492,330
1.493,336
1.494,335
1.495,322
1.496,343
1.497,339
1.498,328
1.499,323
1.5,324
1.501,328
1.502,331
1.503,321
1.504,329
1.505,326
1.506,323
1.507,318
1.508,317
1.509,316
1.51,317
1.511,307
1.512,295
1.513,286
1.514,286
1.515,280
1.516,273
1.517,270
1.518,274
1.519,265
1.52,278
1.521,330
1.522,335
1.523,360
1.524,372
1.525,385
1.526,396
1.527,387
1.528,375
1.529,382
1.53,376
1.531,371
1.532,360
1.533,351
1.534,351
1.535,348
1.536,341
1.537,345
1.538,350
1.539,346
1.54,340
1.541,331
1.542,335
1.543,331
1.544,323
1.545,349
1.546,381
1.547,382
1.548,373
1.549,375
1.55,381
1.551,382
1.552,367
1.553,357
1.554,358
1.555,386
1.556,380
1.557,374
1.558,373
1.559,372
1.56,359
1.561,393
1.562,415
1.563,413
1.564,413
1.565,405
1.566,409
1.567,416
1.568,401
1.569,388
1.57,397
1.571,399
1.572,390
1.573,389
1.574,384
1.575,385
1.576,372
1.577,357
1.578,344
1.579,341
1.58,338
1.581,328
1.582,323
1.583,323
1.584,317
1.585,314
1.586,311
1.587,300
1.588,289
1.589,283
1.59,279
1.591,278
1.592,276
1.593,271
1.594,263
1.595,257
1.596,264
1.597,258
1.598,249
1.599,253
1.6,248
1.601,262
1.602,290
1.603,287
1.604,290
1.605,285
1.606,280
1.607,280
1.608,283
1.609,316
1.61,326
1.611,322
1.612,318
1.613,315
1.614,314
1.615,317
1.616,313
1.617,301
1.618,292
1.619,288
1.62,334
1.621,333
1.622,329
1.623,331
1.624,331
1.625,318
1.626,312
1.627,301
1.628,290
1.629,280
1.63,274
1.631,270
1.632,272
1.633,265
1.634,273
1.635,304
1.636,303
1.637,296
1.638,292
1.639,288
1.64,292
1.641,290
1.642,294
1.643,296
1.644,311
1.645,309
1.646,305
1.647,307
1.648,310
1.649,302
1.65,294
1.651,327
1.652,318
1.653,312
1.654,304
1.655,303
1.656,305
1.657,300
1.658,290
1.659,304
1.66,294
1.661,303
1.662,302
1.663,298
1.664,301
1.665,296
1.666,287
1.667,296
1.668,307
1.669,299
1.67,320
1.671,317
1.672,324
1.673,324
1.674,312
1.675,325
1.676,320
1.677,314
1.678,307
1.679,300
1.68,302
1.681,301
1.682,289
1.683,338
1.684,362
1.685,357
1.686,362
1.687,357
1.688,353
1.689,357
1.69,344
1.691,331
1.692,338
1.693,344
1.694,338
1.695,331
1.696,331
1.697,332
1.698,320
1.699,322
1.7,320
1.701,342
1.702,341
1.703,335
1.704,333
1.705,336
1.706,329
1.707,355
1.708,364
1.709,356
1.71,363
1.711,362
1.712,357
1.713,359
1.714,350
1.715,338
1.716,337
1.717,328
1.718,319
1.719,309
1.72,300
1.721,302
1.722,297
1.723,287
1.724,321
1.725,323
1.726,329
1.727,327
1.728,326
1.729,331
1.73,330
1.731,322
1.732,338
1.733,330
1.734,339
1.735,338
1.736,333
1.737,332
1.738,333
1.739,345
1.74,336
1.741,345
1.742,371
1.743,372
1.744,377
1.745,382
1.746,383
1.747,386
1.748,389
1.749,380
1.75,375
1.751,366
1.752,358
1.753,357
1.754,362
1.755,354
1.756,344
1.757,364
1.758,385
1.759,380
1.76,376
1.761,382
1.762,388
1.763,381
1.764,383
1.765,381
1.766,388
1.767,391
1.768,388
1.769,382
1.77,385
1.771,378
1.772,364
1.773,400
1.774,404
1.775,401
1.776,394
1.777,398
1.778,398
1.779,385
1.78,384
1.781,397
1.782,388
1.783,378
1.784,366
1.785,358
1.786,358
1.787,354
1.788,342
1.789,346
1.79,341
1.791,339
1.792,329
1.793,325
1.794,325
1.795,326
1.796,315
1.797,327
1.798,355
1.799,353
1.8,345
1.801,336
1.802,333
1.803,335
1.804,324
1.805,337
1.806,326
1.807,336
1.808,333
1.809,328
1.81,327
1.811,322
1.812,309
1.813,313
1.814,322
1.815,314
1.816,306
1.817,304
1.818,328
1.819,340
1.82,340
1.821,331
1.822,362
1.823,388
1.824,386
1.825,400
1.826,404
1.827,408
1.828,401
1.829,397
1.83,425
1.831,419
1.832,411
1.833,403
1.834,398
1.835,399
1.836,390
1.837,385
1.838,388
1.839,417
1.84,414
1.841,412
1.842,405
1.843,410
1.844,408
1.845,416
1.846,453
1.847,452
1.848,443
1.849,435
1.85,427
1.851,427
1.852,424
1.853,411
1.854,424
1.855,428
1.856,422
1.857,414
1.858,407
1.859,407
1.86,402
1.861,386
1.862,399
1.863,404
1.864,394
1.865,403
1.866,399
1.867,395
1.868,396
1.869,381
1.87,379
1.871,368
1.872,356
1.873,345
1.874,336
1.875,324
1.876,326
1.877,316
1.878,308
1.879,323
1.88,314
1.881,305
1.882,299
1.883,294
1.884,296
1.885,288
1.886,303
1.887,315
1.888,320
1.889,319
1.89,315
1.891,314
1.892,318
1.893,308
1.894,306
1.895,314
1.896,314
1.897,309
1.898,305
1.899,295
1.9,298
1.901,297
1.902,293
1.903,324
1.904,320
1.905,315
1.906,305
1.907,301
1.908,301
1.909,296
1.91,285
1.911,287
1.912,325
1.913,322
1.914,324
1.915,319
1.916,324
1.917,323
1.918,310
1.919,301
1.92,322
1.921,316
1.922,332
1.923,332
1.924,352
1.925,366
1.926,364
1.927,367
1.928,371
1.929,396
1.93,396
1.931,398
1.932,396
1.933,399
1.934,411
1.935,402
1.936,409
1.937,400
1.938,393
1.939,385
1.94,375
1.941,380
1.942,372
1.943,366
1.944,375
1.945,367
1.946,388
1.947,390
1.948,387
1.949,384
1.95,377
1.951,374
1.952,372
1.953,362
1.954,352
1.955,346
1.956,340
1.957,336
1.958,332
1.959,319
1.96,333
1.961,336
1.962,336
1.963,332
1.964,324
1.965,330
1.966,329
1.967,317
1.968,304
1.969,313
1.97,341
1.971,391
1.972,401
1.973,404
1.974,407
1.975,402
1.976,407
1.977,435
1.978,435
1.979,431
1.98,421
1.981,419
1.982,423
1.983,406
1.984,414
1.985,429
1.986,420
1.987,414
1.988,404
1.989,403
1.99,405
1.991,403
1.992,435
1.993,467
1.994,464
1.995,465
1.996,463
1.997,458
1.998,458
1.999,445
2.0,441
2.001,428
2.002,412
2.003,397
2.004,393
2.005,388
2.006,389
2.007,378
2.008,377
2.009,380
2.01,379
2.011,404
2.012,400
2.013,399
2.014,401
2.015,395
2.016,391
2.017,445
2.018,439
2.019,466
2.02,467
2.021,467
2.022,468
2.023,461
2.024,443
2.025,427
2.026,420
2.027,411
2.028,400
2.029,387
2.03,379
2.031,371
2.032,364
2.033,369
2.034,362
2.035,366
2.036,359
2.037,351
2.038,344
2.039,339
2.04,324
2.041,314
2.042,302
2.043,290
2.044,279
2.045,268
2.046,264
2.047,262
2.048,252
2.049,255
2.05,268
2.051,279
2.052,288
2.053,285
2.054,288
2.055,293
2.056,287
2.057,281
2.058,300
2.059,295
2.06,292
2.061,286
2.062,279
2.063,282
2.064,277
2.065,270
2.066,276
2.067,268
2.068,259
2.069,262
2.07,260
2.071,264
2.072,260
2.073,270
2.074,307
2.075,313
2.076,313
2.077,337
2.078,346
2.079,358
2.08,361
2.081,349
2.082,348
2.083,355
2.084,362
2.085,358
2.086,354
2.087,356
2.088,352
2.089,340
2.09,339
2.091,378
2.092,372
2.093,367
2.094,360
2.095,357
2.096,356
2.097,342
2.098,357
2.099,354
2.1,360
2.101,357
2.102,348
2.103,342
2.104,343
2.105,330
2.106,329
2.107,351
2.108,362
2.109,361
2.11,356
2.111,354
2.112,356
2.113,345
2.114,349
2.115,381
2.116,411
2.117,417
2.118,416
2.119,410
2.12,412
2.121,400
2.122,410
2.123,462
2.124,483
2.125,487
2.126,482
2.127,476
2.128,479
2.129,465
2.13,450
2.131,477
2.132,470
2.133,461
2.134,449
2.135,443
2.136,437
2.137,427
2.138,410
2.139,403
2.14,402
2.141,449
2.142,448
2.143,464
2.144,469
2.145,471
2.146,456
2.147,440
2.148,435
2.149,435
2.15,432
2.151,421
2.152,419
2.153,417
2.154,401
2.155,422
2.156,424
2.157,423
2.158,422
2.159,414
2.16,413
2.161,410
2.162,393
2.163,416
2.164,443
2.165,445
2.166,440
2.167,432
2.168,427
2.169,425
2.17,409
2.171,397
2.172,382
2.173,376
2.174,362
2.175,351
2.176,338
2.177,337
2.178,325
2.179,316
2.18,340
2.181,336
2.182,329
2.183,326
2.184,320
2.185,322
2.186,315
2.187,304
2.188,320
2.189,333
2.19,324
2.191,320
2.192,315
2.193,318
2.194,311
2.195,299
2.196,293
2.197,283
2.198,272
2.199,272
2.2,268
2.201,267
2.202,266
2.203,256
2.204,286
2.205,280
2.206,274
2.207,276
2.208,274
2.209,280
2.21,277
2.211,269
2.212,284
2.213,288
2.214,291
2.215,287
2.216,293
2.217,287
2.218,284
2.219,278
2.22,288
2.221,316
2.222,317
2.223,312
2.224,309
2.225,316
2.226,321
2.227,311
2.228,317
2.229,362
2.23,365
2.231,361
2.232,356
2.233,349
2.234,350
2.235,344
2.236,358
2.237,354
2.238,363
2.239,354
2.24,346
2.241,341
2.242,340
2.243,330
2.244,323
2.245,322
2.246,342
2.247,338
2.248,330
2.249,328
2.25,327
2.251,322
2.252,310
2.253,303
2.254,316
2.255,312
2.256,306
2.257,297
2.258,297
2.259,294
2.26,285
2.261,312
2.262,310
2.263,308
2.264,303
2.265,302
2.266,304
2.267,304
2.268,298
2.269,295
2.27,302
2.271,292
2.272,288
2.273,283
2.274,282
2.275,282
2.276,272
2.277,278
2.278,286
2.279,275
2.28,268
2.281,263
2.282,260
2.283,262
2.284,264
2.285,269
2.286,282
2.287,299
2.288,293
2.289,299
2.29,304
2.291,309
2.292,300
2.293,289
2.294,277
2.295,283
2.296,278
2.297,275
2.298,271
2.299,276
2.3,269
2.301,259
2.302,262
2.303,265
2.304,286
2.305,283
2.306,285
2.307,294
2.308,297
2.309,285
2.31,291
2.311,281
2.312,272
2.313,265
2.314,259
2.315,259
2.316,255
2.317,247
2.318,273
2.319,301
2.32,304
2.321,312
2.322,310
2.323,320
2.324,322
2.325,317
2.326,316
2.327,341
2.328,339
2.329,337
2.33,338
2.331,341
2.332,338
2.333,324
2.334,314
2.335,323
2.336,316
2.337,310
2.338,303
2.339,300
2.34,302
2.341,293
2.342,305
2.343,326
2.344,330
2.345,340
2.346,342
2.347,342
2.348,344
2.349,349
2.35,342
2.351,359
2.352,350
2.353,347
2.354,339
2.355,349
2.356,354
2.357,350
2.358,339
2.359,347
2.36,341
2.361,376
2.362,376
2.363,381
2.364,390
2.365,386
2.366,387
2.367,426
2.368,449
2.369,450
2.37,444
2.371,439
2.372,445
2.373,441
2.374,427
2.375,426
2.376,415
2.377,408
2.378,412
2.379,420
2.38,425
2.381,420
2.382,403
2.383,417
2.384,407
2.385,434
2.386,425
2.387,418
2.388,414
2.389,415
2.39,401
2.391,415
2.392,417
2.393,405
2.394,393
2.395,389
2.396,387
2.397,385
2.398,371
2.399,363
2.4,367
2.401,357
2.402,366
2.403,363
2.404,357
2.405,359
2.406,345
2.407,355
2.408,342
2.409,330
2.41,320
2.411,312
2.412,306
2.413,307
2.414,299
2.415,326
2.416,353
2.417,355
2.418,350
2.419,354
2.42,366
2.421,380
2.422,389
2.423,382
2.424,392
2.425,381
2.426,387
2.427,378
2.428,401
2.429,411
2.43,408
2.431,399
2.432,420
2.433,448
2.434,454
2.435,460
2.436,458
2.437,454
2.438,449
2.439,431
2.44,416
2.441,431
2.442,433
2.443,423
2.444,413
2.445,411
2.446,399
2.447,384
2.448,384
2.449,376
2.45,366
2.451,356
2.452,344
2.453,337
2.454,337
2.455,323
2.456,323
2.457,319
2.458,310
2.459,305
2.46,295
2.461,285
2.462,288
2.463,277
2.464,269
2.465,276
2.466,289
2.467,284
2.468,280
2.469,284
2.47,286
2.471,285
2.472,277
2.473,301
2.474,315
2.475,316
2.476,317
2.477,321
2.478,330
2.479,328
2.48,318
2.481,324
2.482,315
2.483,319
2.484,314
2.485,317
2.486,321
2.487,317
2.488,310
2.489,316
2.49,327
2.491,318
2.492,315
2.493,310
2.494,312
2.495,304
2.496,299
2.497,290
2.498,290
2.499,331
2.5,334
2.501,331
2.502,336
2.503,338
2.504,325
2.505,328
2.506,329
2.507,319
2.508,312
2.509,304
2.51,308
2.511,302
2.512,289
2.513,278
2.514,288
2.515,298
2.516,295
2.517,287
2.518,287
2.519,288
2.52,278
2.521,270
2.522,277
2.523,314
2.524,309
2.525,307
2.526,306
2.527,309
2.528,297
2.529,296
2.53,308
2.531,304
2.532,298
2.533,292
2.534,292
2.535,295
2.536,292
2.537,291
2.538,312
2.539,303
2.54,294
2.541,286
2.542,279
2.543,279
2.544,275
2.545,266
2.546,265
2.547,268
2.548,269
2.549,262
2.55,260
2.551,267
2.552,267
2.553,257
2.554,264
2.555,283
2.556,300
2.557,313
2.558,325
2.559,336
2.56,339
2.561,337
2.562,327
2.563,320
2.564,310
2.565,306
2.566,297
2.567,290
2.568,292
2.569,281
2.57,289
2.571,282
2.572,292
2.573,303
2.574,310
2.575,313
2.576,313
2.577,301
2.578,288
2.579,291
2.58,281
2.581,270
2.582,263
2.583,257
2.584,260
2.585,256
2.586,251
2.587,255
2.588,272
2.589,300
2.59,303
2.591,301
2.592,311
2.593,307
2.594,295
2.595,301
2.596,294
2.597,286
2.598,284
2.599,285
2.6,288
2.601,283
2.602,275
2.603,317
2.604,311
2.605,307
2.606,314
2.607,313
2.608,317
2.609,309
2.61,299
2.611,314
2.612,355
2.613,357
2.614,357
2.615,349
2.616,351
2.617,350
2.618,336
2.619,325
2.62,356
2.621,362
2.622,358
2.623,354
2.624,354
2.625,353
2.626,344
2.627,343
2.628,356
2.629,396
2.63,401
2.631,397
2.632,399
2.633,401
2.634,387
2.635,373
2.636,377
2.637,372
2.638,374
2.639,369
2.64,366
2.641,367
2.642,353
2.643,342
2.644,340
2.645,347
2.646,344
2.647,338
2.648,333
2.649,337
2.65,329
2.651,329
2.652,336
2.653,375
2.654,397
2.655,402
2.656,404
2.657,409
2.658,399
2.659,384
2.66,374
2.661,370
2.662,377
2.663,371
2.664,363
2.665,364
2.666,354
2.667,341
2.668,362
2.669,359
2.67,355
2.671,348
2.672,341
2.673,340
2.674,340
2.675,327
2.676,326
2.677,316
2.678,307
2.679,296
2.68,288
2.681,283
2.682,277
2.683,287
2.684,276
2.685,302
2.686,302
2.687,296
2.688,301
2.689,307
2.69,309
2.691,297
2.692,288
2.693,289
2.694,293
2.695,287
2.696,280
2.697,275
2.698,277
2.699,289
2.7,300
2.701,320
2.702,324
2.703,322
2.704,318
2.705,317
2.706,320
2.707,311
2.708,311
2.709,323
2.71,318
2.711,313
2.712,306
2.713,297
2.714,301
2.715,296
2.716,286
2.717,300
2.718,308
2.719,301
2.72,297
2.721,290
2.722,294
2.723,292
2.724,302
2.725,344
2.726,353
2.727,353
2.728,356
2.729,356
2.73,357
2.731,353
2.732,340
2.733,355
2.734,365
2.735,359
2.736,354
2.737,347
2.738,347
2.739,343
2.74,329
2.741,346
2.742,355
2.743,343
2.744,370
2.745,370
2.746,377
2.747,382
2.748,368
2.749,364
2.75,361
2.751,349
2.752,342
2.753,335
2.754,332
2.755,332
2.756,321
2.757,318
2.758,318
2.759,310
2.76,300
2.761,292
2.762,288
2.763,288
2.764,279
2.765,272
2.766,284
2.767,278
2.768,281
2.769,300
2.77,304
2.771,311
2.772,306
2.773,303
2.774,317
2.775,326
2.776,328
2.777,330
2.778,329
2.779,332
2.78,325
2.781,314
2.782,304
2.783,323
2.784,333
2.785,330
2.786,331
2.787,337
2.788,338
2.789,324
2.79,313
2.791,306
2.792,294
2.793,286
2.794,276
2.795,275
2.796,270
2.797,263
2.798,256
2.799,266
2.8,258
2.801,251
2.802,242
2.803,244
2.804,245
2.805,237
2.806,240
2.807,235
2.808,243
2.809,237
2.81,243
2.811,248
2.812,252
2.813,243
2.814,247
2.815,270
2.816,302
2.817,313
2.818,332
2.819,333
2.82,342
2.821,336
2.822,343
2.823,383
2.824,381
2.825,382
2.826,385
2.827,381
2.828,386
2.829,381
2.83,377
2.831,412
2.832,406
2.833,407
2.834,406
2.835,398
2.836,405
2.837,402
2.838,390
2.839,384
2.84,376
2.841,365
2.842,371
2.843,362
2.844,363
2.845,360
2.846,352
2.847,364
2.848,353
2.849,367
2.85,366
2.851,355
2.852,356
2.853,354
2.854,345
2.855,367
2.856,395
2.857,399
2.858,404
2.859,412
2.86,418
2.861,418
2.862,416
2.863,415
2.864,425
2.865,417
2.866,410
2.867,408
2.868,406
2.869,409
2.87,394
2.871,388
2.872,400
2.873,390
2.874,401
2.875,395
2.876,394
2.877,403
2.878,394
2.879,394
2.88,397
2.881,393
2.882,434
2.883,437
2.884,433
2.885,445
2.886,443
2.887,428
2.888,431
2.889,418
2.89,408
2.891,395
2.892,387
2.893,387
2.894,375
2.895,361
2.896,409
2.897,414
2.898,412
2.899,409
2.9,403
2.901,406
2.902,396
2.903,388
2.904,402
2.905,403
2.906,397
2.907,391
2.908,381
2.909,379
2.91,376
2.911,362
2.912,372
2.913,362
2.914,355
2.915,357
2.916,350
2.917,347
2.918,341
2.919,327
2.92,334
2.921,322
2.922,315
2.923,321
2.924,315
2.925,313
2.926,318
2.927,313
2.928,320
2.929,327
2.93,354
2.931,360
2.932,359
2.933,359
2.934,367
2.935,360
2.936,351
2.937,356
2.938,346
2.939,339
2.94,331
2.941,332
2.942,334
2.943,326
2.944,318
2.945,330
2.946,344
2.947,339
2.948,361
2.949,374
2.95,390
2.951,393
2.952,382
2.953,374
2.954,368
2.955,363
2.956,359
2.957,353
2.958,353
2.959,348
2.96,333
2.961,347
2.962,339
2.963,351
2.964,360
2.965,357
2.966,364
2.967,365
2.968,352
2.969,392
2.97,409
2.971,431
2.972,439
2.973,438
2.974,444
2.975,450
2.976,438
2.977,449
2.978,443
2.979,436
2.98,427
2.981,424
2.982,421
2.983,423
2.984,406
2.985,407
2.986,419
2.987,410
2.988,401
2.989,390
2.99,380
2.991,380
2.992,368
2.993,366
2.994,375
2.995,366
2.996,358
2.997,351
2.998,349
2.999,350
3.0,347
3.001,336
3.002,326
3.003,339
3.004,351
3.005,353
3.006,353
3.007,362
3.008,355
3.009,346
3.01,357
3.011,380
3.012,380
3.013,384
3.014,378
3.015,378
3.016,372
3.017,359
3.018,374
3.019,369
3.02,414
3.021,414
3.022,415
3.023,422
3.024,423
3.025,407
3.026,421
3.027,425
3.028,413
3.029,412
3.03,403
3.031,404
3.032,402
3.033,390
3.034,384
3.035,417
3.036,425
3.037,421
3.038,447
3.039,464
3.04,470
3.041,454
3.042,452
3.043,440
3.044,435
3.045,458
3.046,458
3.047,457
3.048,455
3.049,439
3.05,443
3.051,442
3.052,430
3.053,419
3.054,408
3.055,400
3.056,393
3.057,382
3.058,371
3.059,402
3.06,392
3.061,387
3.062,381
3.063,379
3.064,384
3.065,377
3.066,378
3.067,422
3.068,422
3.069,423
3.07,420
3.071,419
3.072,421
3.073,409
3.074,395
3.075,412
3.076,400
3.077,390
3.078,378
3.079,368
3.08,367
3.081,361
3.082,348
3.083,385
3.084,391
3.085,408
3.086,456
3.087,473
3.088,487
3.089,490
3.09,475
3.091,468
3.092,467
3.093,483
3.094,475
3.095,465
3.096,467
3.097,465
3.098,447
3.099,462
3.1,463
3.101,452
3.102,437
3.103,424
3.104,422
3.105,420
3.106,402
3.107,419
3.108,435
3.109,422
3.11,420
3.111,413
3.112,406
3.113,406
3.114,392
3.115,391
3.116,401
3.117,396
3.118,391
3.119,379
3.12,375
3.121,375
3.122,363
3.123,349
3.124,340
3.125,327
3.126,315
3.127,303
3.128,295
3.129,295
3.13,286
3.131,280
3.132,317
3.133,309
3.134,302
3.135,296
3.136,290
3.137,290
3.138,283
3.139,276
3.14,306
3.141,326
3.142,324
3.143,322
3.144,317
3.145,320
3.146,326
3.147,314
3.148,329
3.149,322
3.15,323
3.151,319
3.152,318
3.153,324
3.154,321
3.155,308
3.156,306
3.157,301
3.158,330
3.159,349
3.16,349
3.161,355
3.162,355
3.163,341
3.164,331
3.165,344
3.166,335
3.167,337
3.168,332
3.169,332
3.17,328
3.171,316
3.172,311
3.173,322
3.174,317
3.175,315
3.176,309
3.177,304
3.178,305
3.179,297
3.18,292
3.181,325
3.182,322
3.183,316
3.184,316
3.185,312
3.186,312
3.187,304
3.188,295
3.189,293
3.19,303
3.191,313
3.192,310
3.193,305
3.194,310
3.195,308
3.196,296
3.197,308
3.198,320
3.199,334
3.2,336
3.201,339
3.202,347
3.203,352
3.204,338
3.205,352
3.206,356
3.207,360
3.208,360
3.209,354
3.21,348
3.211,349
3.212,339
3.213,336
3.214,323
3.215,312
3.216,300
3.217,291
3.218,289
3.219,290
3.22,284
3.221,297
3.222,292
3.223,291
3.224,284
3.225,283
3.226,287
3.227,292
3.228,287
3.229,289
3.23,290
3.231,287
3.232,292
3.233,310
3.234,307
3.235,319
3.236,317
3.237,309
3.238,306
3.239,295
3.24,287
3.241,278
3.242,273
3.243,274
3.244,269
3.245,261
3.246,270
3.247,263
3.248,255
3.249,248
3.25,240
3.251,238
3.252,238
3.253,231
3.254,246
3.255,242
3.256,255
3.257,260
3.258,258
3.259,259
3.26,260
3.261,255
3.262,263
3.263,269
3.264,261
3.265,257
3.266,255
3.267,257
3.268,252
3.269,245
3.27,239
3.271,230
3.272,231
3.273,248
3.274,269
3.275,282
3.276,290
3.277,281
3.278,276
3.279,280
3.28,297
3.281,296
3.282,294
3.283,300
3.284,300
3.285,290
3.286,285
3.287,327
3.288,326
3.289,317
3.29,312
3.291,307
3.292,311
3.293,299
3.294,307
3.295,315
3.296,322
3.297,322
3.298,324
3.299,324
3.3,329
3.301,325
3.302,321
3.303,338
3.304,331
3.305,339
3.306,342
3.307,340
3.308,347
3.309,339
3.31,341
3.311,353
3.312,343
3.313,335
3.314,329
3.315,324
3.316,326
3.317,327
3.318,316
3.319,362
3.32,377
3.321,374
3.322,374
3.323,373
3.324,380
3.325,379
3.326,370
3.327,383
3.328,402
3.329,425
3.33,425
3.331,418
3.332,415
3.333,414
3.334,398
3.335,411
3.336,416
3.337,410
3.338,400
3.339,407
3.34,404
3.341,409
3.342,399
3.343,386
3.344,372
3.345,361
3.346,350
3.347,357
3.348,354
3.349,358
3.35,344
3.351,334
3.352,351
3.353,343
3.354,336
3.355,326
3.356,320
3.357,321
3.358,311
3.359,313
3.36,318
3.361,324
3.362,316
3.363,309
3.364,300
3.365,301
3.366,300
3.367,303
3.368,306
3.369,299
3.37,294
3.371,293
3.372,287
3.373,293
3.374,294
3.375,286
3.376,285
3.377,276
3.378,286
3.379,282
3.38,280
3.381,274
3.382,273
3.383,268
3.384,277
3.385,287
3.386,285
3.387,283
3.388,309
3.389,309
3.39,314
3.391,302
3.392,296
3.393,298
3.394,290
3.395,284
3.396,279
3.397,278
3.398,281
3.399,273
3.4,278
3.401,276
3.402,267
3.403,260
3.404,253
3.405,248
3.406,253
3.407,262
3.408,267
3.409,263
3.41,302
3.411,303
3.412,301
3.413,301
3.414,308
3.415,303
3.416,299
3.417,314
3.418,315
3.419,311
3.42,303
3.421,299
3.422,303
3.423,295
3.424,294
3.425,308
3.426,310
3.427,306
3.428,301
3.429,295
3.43,294
3.431,290
3.432,284
3.433,290
3.434,287
3.435,280
3.436,270
3.437,264
3.438,268
3.439,265
3.44,263
3.441,261
3.442,260
3.443,280
3.444,281
3.445,275
3.446,283
3.447,286
3.448,275
3.449,266
3.45,261
3.451,263
3.452,256
3.453,248
3.454,245
3.455,248
3.456,242
3.457,241
3.458,238
3.459,239
3.46,265
3.461,263
3.462,269
3.463,274
3.464,280
3.465,275
3.466,280
3.467,285
3.468,287
3.469,282
3.47,283
3.471,288
3.472,282
3.473,272
3.474,267
3.475,257
3.476,249
3.477,243
3.478,238
3.479,240
3.48,235
3.481,233
3.482,236
3.483,239
3.484,232
3.485,226
3.486,223
3.487,227
3.488,224
3.489,218
3.49,220
3.491,213
3.492,242
3.493,240
3.494,240
3.495,246
3.496,246
3.497,241
3.498,280
3.499,277
3.5,272
3.501,269
3.502,270
3.503,270
3.504,269
3.505,259
3.506,277
3.507,267
3.508,260
3.509,252
3.51,252
3.511,255
3.512,259
3.513,249
3.514,240
3.515,250
3.516,248
3.517,242
3.518,234
3.519,234
3.52,236
3.521,230
3.522,257
3.523,297
3.524,295
3.525,292
3.526,287
3.527,289
3.528,293
3.529,285
3.53,275
3.531,285
3.532,283
3.533,278
3.534,298
3.535,301
3.536,307
3.537,300
3.538,331
3.539,333
3.54,343
3.541,344
3.542,339
3.543,337
3.544,341
3.545,334
3.546,323
3.547,322
3.548,310
3.549,300
3.55,309
3.551,302
3.552,306
3.553,304
3.554,294
3.555,295
3.556,323
3.557,344
3.558,340
3.559,351
3.56,360
3.561,364
3.562,350
3.563,338
3.564,357
3.565,348
3.566,342
3.567,335
3.568,337
3.569,337
3.57,324
3.571,326
3.572,317
3.573,339
3.574,333
3.575,328
3.576,328
3.577,328
3.578,315
3.579,302
3.58,303
3.581,304
3.582,296
3.583,289
3.584,286
3.585,286
3.586,283
3.587,286
3.588,303
3.589,312
3.59,306
3.591,305
3.592,310
3.593,313
3.594,310
3.595,325
3.596,345
3.597,344
3.598,343
3.599,335
3.6,335
3.601,336
3.602,326
3.603,320
3.604,309
3.605,316
3.606,325
3.607,323
3.608,323
3.609,326
3.61,318
3.611,311
3.612,307
3.613,299
3.614,295
3.615,285
3.616,278
3.617,278
3.618,278
3.619,267
3.62,287
3.621,321
3.622,318
3.623,316
3.624,325
3.625,329
3.626,334
3.627,323
3.628,326
3.629,331
3.63,324
3.631,318
3.632,312
3.633,302
3.634,306
3.635,294
3.636,298
3.637,297
3.638,288
3.639,292
3.64,291
3.641,282
3.642,288
3.643,280
3.644,272
3.645,264
3.646,258
3.647,249
3.648,244
3.649,242
3.65,246
3.651,240
